2025-07-08 12:29:44,828 - INFO - Début du traitement de 495 lignes
2025-07-08 12:29:44,834 - INFO - Traitement de la ligne 0: 0.9084249138832092,0.7838827967643738,0.5311355590820312,0.3626373708248138,0.36630037426948553,0.3443223536014557,0.3333333432674408,0.3076923191547394,0.2967033088207245,0.30036631226539606,0.3040293157100677,0.3369963467121124,0.3772893846035004,0.3919413983821869,0.4395604431629181,0.44688645005226135,0.45787546038627613,0.479853481054306,0.512820541858673,0.5347985625267029,0.5860806107521057,0.5860806107521057,0.6043956279754639,0.6336996555328369,0.6153846383094788,0.5824176073074341,0.5641025900840759,0.5201465487480164,0.49084249138832087,0.49084249138832087,0.46886447072029114,0.4542124569416046,0.450549453496933,0.4652014672756195,0.450549453496933,0.4322344362735748,0.4249084293842316,0.41025641560554493,0.3919413983821869,0.3699633777141571,0.37362638115882874,0.36630037426948553,0.3186813294887543,0.311355322599411,0.32600733637809753,0.311355322599411,0.31501832604408264,0.3223443329334259,0.3443223536014557,0.3443223536014557,0.3333333432674408,0.3040293157100677,0.3076923191547394,0.282051295042038,0.27106228470802307,0.2857142984867096,0.2637362778186798,0.2747252881526947,0.282051295042038,0.26739928126335144,0.27838829159736633,0.2893773019313812,0.29304030537605286,0.2893773019313812,0.2893773019313812,0.2893773019313812,0.29304030537605286,0.282051295042038,0.26739928126335144,0.2564102709293365,0.25274726748466486,0.2161172181367874,0.22344322502613068,0.2380952388048172,0.2161172181367874,0.26739928126335144,0.4175824224948883,0.5824176073074341,0.6153846383094788,0.622710645198822,0.761904776096344,0.8644688725471495,1.0,0.9084249138832092,0.6739926934242249,0.31501832604408264,0.1538461595773697,0.1208791211247444,0.09890110045671464,0.04395604506134986,0.02197802253067493,0.02197802253067493,0.0293040294200182,0.0,0.010989011265337467,0.0293040294200182,0.014652014710009098,0.02197802253067493,0.04395604506134986,0.08791209012269972,0.0,0.0,0.0,0.0,0.0,0.0,0.0,0.0,0.0,0.0,0.0,0.0,0.0,0.0,0.0,0.0,0.0,0.0,0.0,0.0,0.0,0.0,0.0,0.0,0.0,0.0,0.0,0.0,0.0,0.0,0.0,0.0,0.0,0.0,0.0,0.0,0.0,0.0,0.0,0.0,0.0,0.0,0.0,0.0,0.0,0.0,0.0,0.0,0.0,0.0,0.0,0.0,0.0,0.0,0.0,0.0,0.0,0.0,0.0,0.0,0.0,0.0,0.0,0.0,0.0,0.0,0.0,0.0,0.0,0.0,0.0,0.0,0.0,0.0,0.0,0.0,0.0,0.0,0.0,0.0,0.0,0.0,0.0,0.0,0.0,0.0,0.0,0.0
2025-07-08 12:29:45,401 - INFO - Ligne 0: danger_level=37.15719223022461, catégorie=30.0-39.0
2025-07-08 12:29:45,401 - INFO -   -> Créé categorize/30.0-39.0/line_0000.csv
2025-07-08 12:29:45,406 - INFO - Traitement de la ligne 1: 0.730088472366333,0.21238937973976132,0.0,0.1194690242409706,0.10176990926265717,0.10176990926265717,0.11061947047710417,0.12389380484819412,0.11504425108432768,0.13274335861206055,0.10619468986988068,0.14159291982650757,0.12831857800483704,0.1504424810409546,0.13274335861206055,0.1504424810409546,0.13274335861206055,0.1504424810409546,0.12389380484819412,0.16371680796146393,0.13716813921928403,0.14159291982650757,0.13274335861206055,0.1504424810409546,0.12831857800483704,0.14601770043373108,0.1194690242409706,0.12389380484819412,0.10176990926265717,0.09292035549879074,0.07079645991325377,0.0796460211277008,0.06637167930603027,0.07079645991325377,0.0796460211277008,0.09292035549879074,0.08849557489156723,0.08407079428434373,0.0796460211277008,0.08849557489156723,0.09292035549879074,0.10619468986988068,0.10619468986988068,0.12389380484819412,0.09734513610601424,0.12389380484819412,0.1194690242409706,0.14159291982650757,0.13274335861206055,0.1548672616481781,0.14601770043373108,0.16814158856868744,0.1592920422554016,0.16371680796146393,0.16814158856868744,0.16814158856868744,0.16371680796146393,0.181415930390358,0.18584071099758148,0.1991150379180908,0.17699114978313446,0.20353981852531436,0.19026549160480496,0.20353981852531436,0.19469027221202848,0.21238937973976132,0.20353981852531436,0.21238937973976132,0.21238937973976132,0.22566372156143188,0.2389380484819412,0.28318583965301514,0.3053097426891327,0.3938052952289581,0.45132744312286377,0.43362832069396967,0.37168142199516296,0.35840708017349243,0.27433627843856806,0.2168141603469849,0.181415930390358,0.18584071099758148,0.18584071099758148,0.18584071099758148,0.19469027221202848,0.22566372156143188,0.181415930390358,0.22566372156143188,0.6681416034698486,1.0,0.4601770043373108,0.19026549160480496,0.20353981852531436,0.20796459913253784,0.19469027221202848,0.20796459913253784,0.19469027221202848,0.18584071099758148,0.19469027221202848,0.21238937973976132,0.20796459913253784,0.2168141603469849,0.20796459913253784,0.22566372156143188,0.2168141603469849,0.23451326787471768,0.22566372156143188,0.23451326787471768,0.23008850216865537,0.0,0.0,0.0,0.0,0.0,0.0,0.0,0.0,0.0,0.0,0.0,0.0,0.0,0.0,0.0,0.0,0.0,0.0,0.0,0.0,0.0,0.0,0.0,0.0,0.0,0.0,0.0,0.0,0.0,0.0,0.0,0.0,0.0,0.0,0.0,0.0,0.0,0.0,0.0,0.0,0.0,0.0,0.0,0.0,0.0,0.0,0.0,0.0,0.0,0.0,0.0,0.0,0.0,0.0,0.0,0.0,0.0,0.0,0.0,0.0,0.0,0.0,0.0,0.0,0.0,0.0,0.0,0.0,0.0,0.0,0.0,0.0,0.0,0.0,0.0,0.0,0.0,0.0,0.0
2025-07-08 12:29:46,228 - INFO - Ligne 1: danger_level=94.3558349609375, catégorie=90.0-99.0
2025-07-08 12:29:46,228 - INFO -   -> Créé categorize/90.0-99.0/line_0001.csv
2025-07-08 12:29:46,234 - INFO - Traitement de la ligne 2: 1.0,0.9104166626930237,0.6812499761581421,0.4729166626930237,0.2291666716337204,0.06875000149011612,0.0,0.004166666883975267,0.014583333395421503,0.05416666716337204,0.10208333283662796,0.12291666865348816,0.15000000596046448,0.16875000298023224,0.17291666567325592,0.17083333432674408,0.16875000298023224,0.16458334028720856,0.15625,0.15208333730697632,0.14791665971279144,0.14791665971279144,0.1458333283662796,0.1458333283662796,0.14166666567325592,0.14166666567325592,0.14791665971279144,0.15833333134651184,0.16875000298023224,0.17916665971279144,0.19166666269302368,0.20624999701976776,0.22083333134651184,0.2395833283662796,0.25833332538604736,0.2750000059604645,0.2874999940395355,0.3083333373069763,0.32083332538604736,0.3312500119209289,0.3416666686534881,0.34583333134651184,0.35208332538604736,0.3541666567325592,0.34583333134651184,0.34583333134651184,0.3479166626930237,0.3416666686534881,0.3416666686534881,0.34375,0.34375,0.3416666686534881,0.3375000059604645,0.3416666686534881,0.3604166805744171,0.3583333194255829,0.3583333194255829,0.35208332538604736,0.35624998807907104,0.3583333194255829,0.34375,0.30416667461395264,0.2874999940395355,0.2708333432674408,0.2666666805744171,0.2604166567325592,0.26249998807907104,0.2562499940395355,0.2687500119209289,0.2604166567325592,0.2645833194255829,0.2687500119209289,0.2708333432674408,0.2708333432674408,0.2750000059604645,0.27291667461395264,0.2791666686534881,0.28125,0.28125,0.28333333134651184,0.2770833373069763,0.2604166567325592,0.3187499940395355,0.48124998807907104,0.6145833134651184,0.7479166388511658,0.9041666388511655,0.9708333611488342,0.9354166388511655,0.7395833134651184,0.5458333492279053,0.31458333134651184,0.12708333134651184,0.01666666753590107,0.020833333954215046,0.02291666716337204,0.06458333134651184,0.10208333283662796,0.12291666865348816,0.15833333134651184,0.1770833283662796,0.17291666567325592,0.17499999701976776,0.16875000298023224,0.16458334028720856,0.0,0.0,0.0,0.0,0.0,0.0,0.0,0.0,0.0,0.0,0.0,0.0,0.0,0.0,0.0,0.0,0.0,0.0,0.0,0.0,0.0,0.0,0.0,0.0,0.0,0.0,0.0,0.0,0.0,0.0,0.0,0.0,0.0,0.0,0.0,0.0,0.0,0.0,0.0,0.0,0.0,0.0,0.0,0.0,0.0,0.0,0.0,0.0,0.0,0.0,0.0,0.0,0.0,0.0,0.0,0.0,0.0,0.0,0.0,0.0,0.0,0.0,0.0,0.0,0.0,0.0,0.0,0.0,0.0,0.0,0.0,0.0,0.0,0.0,0.0,0.0,0.0,0.0,0.0,0.0,0.0,0.0,0.0
2025-07-08 12:29:46,879 - INFO - Ligne 2: danger_level=38.559234619140625, catégorie=30.0-39.0
2025-07-08 12:29:46,879 - INFO -   -> Créé categorize/30.0-39.0/line_0002.csv
2025-07-08 12:29:46,884 - INFO - Traitement de la ligne 3: 0.5704697966575624,0.3993288576602936,0.23825503885746,0.14765100181102753,0.0,0.003355704713612795,0.04026845470070839,0.08053690940141676,0.07046979665756226,0.09060402959585187,0.08053690940141676,0.10402684658765791,0.09395973384380339,0.11744966357946396,0.09731543809175491,0.13422818481922147,0.12416107207536696,0.16107381880283356,0.17114093899726868,0.19463087618350983,0.20469798147678372,0.2617449760437012,0.2751677930355072,0.3322147727012634,0.34563758969306946,0.39597314596176153,0.40604028105735773,0.45637583732604975,0.44630873203277593,0.44630873203277593,0.3993288576602936,0.3691275119781494,0.3087248206138611,0.29530200362205505,0.2651006579399109,0.2718120813369751,0.25838926434516907,0.26845636963844294,0.2617449760437012,0.281879186630249,0.2718120813369751,0.29865771532058716,0.29194632172584534,0.31879195570945734,0.3120805323123932,0.3422818779945373,0.3255033493041992,0.34563758969306946,0.3322147727012634,0.3523489832878113,0.3355704843997956,0.3523489832878113,0.34563758969306946,0.36577180027961725,0.3557046949863434,0.3590604066848755,0.3489933013916016,0.36577180027961725,0.3489933013916016,0.3859060406684875,0.3758389353752136,0.4026845693588257,0.39261746406555176,0.4194630980491638,0.4026845693588257,0.4093959629535675,0.3859060406684875,0.3859060406684875,0.3489933013916016,0.3624161183834076,0.3322147727012634,0.3557046949863434,0.3120805323123932,0.34563758969306946,0.31879195570945734,0.3255033493041992,0.30536913871765137,0.3120805323123932,0.30201342701911926,0.3355704843997956,0.3120805323123932,0.32885906100273127,0.3120805323123932,0.3322147727012634,0.3221476376056671,0.3422818779945373,0.3590604066848755,0.449664443731308,0.5906040072441101,0.7214764952659608,0.6610738039016724,0.6140939593315125,0.744966447353363,0.9697986841201782,1.0,0.8255033493041992,0.6778523325920105,0.5335570573806763,0.30201342701911926,0.19463087618350983,0.1845637559890747,0.25167784094810486,0.24496644735336304,0.24832214415073395,0.22818791866302487,0.25838926434516907,0.231543630361557,0.24832214415073395,0.23489932715892792,0.2651006579399109,0.25503355264663696,0.2718120813369751,0.2651006579399109,0.28859061002731323,0.2785235047340393,0.0,0.0,0.0,0.0,0.0,0.0,0.0,0.0,0.0,0.0,0.0,0.0,0.0,0.0,0.0,0.0,0.0,0.0,0.0,0.0,0.0,0.0,0.0,0.0,0.0,0.0,0.0,0.0,0.0,0.0,0.0,0.0,0.0,0.0,0.0,0.0,0.0,0.0,0.0,0.0,0.0,0.0,0.0,0.0,0.0,0.0,0.0,0.0,0.0,0.0,0.0,0.0,0.0,0.0,0.0,0.0,0.0,0.0,0.0,0.0,0.0,0.0,0.0,0.0,0.0,0.0,0.0,0.0,0.0,0.0,0.0,0.0,0.0
2025-07-08 12:29:47,646 - INFO - Ligne 3: danger_level=80.38797760009766, catégorie=80.0-89.0
2025-07-08 12:29:47,647 - INFO -   -> Créé categorize/80.0-89.0/line_0003.csv
2025-07-08 12:29:47,655 - INFO - Traitement de la ligne 4: 1.0,0.9236640930175779,0.6564885377883911,0.1959287524223328,0.1119592860341072,0.17557251453399658,0.12213740497827529,0.05089058354496956,0.03562340885400772,0.0559796430170536,0.040712468326091766,0.040712468326091766,0.05343511328101158,0.04834605753421784,0.040712468326091766,0.040712468326091766,0.04325699806213378,0.045801527798175805,0.045801527798175805,0.03562340885400772,0.04834605753421784,0.04834605753421784,0.05089058354496956,0.04834605753421784,0.07379134744405745,0.06870228797197342,0.07633587718009949,0.07124681770801544,0.08396946638822556,0.08142493665218353,0.10432569682598114,0.10687022656202316,0.12977099418640137,0.12977099418640137,0.13740457594394684,0.12213740497827529,0.1323155164718628,0.12468193471431732,0.12977099418640137,0.11704834550619124,0.12722645699977875,0.11959287524223328,0.11450381577014924,0.10178116708993912,0.11704834550619124,0.09923664480447768,0.09923664480447768,0.07888040691614151,0.09669211506843568,0.08651399612426758,0.07633587718009949,0.06870228797197342,0.0890585258603096,0.0890585258603096,0.0890585258603096,0.07633587718009949,0.10432569682598114,0.09160305559635161,0.09923664480447768,0.09669211506843568,0.11450381577014924,0.12213740497827529,0.12213740497827529,0.12722645699977875,0.14758269488811493,0.1704834550619125,0.1933842301368713,0.20865139365196228,0.23409669101238248,0.2239185720682144,0.2239185720682144,0.1781170517206192,0.2010178118944168,0.18066157400608063,0.12977099418640137,0.10687022656202316,0.10687022656202316,0.09669211506843568,0.09160305559635161,0.08651399612426758,0.10178116708993912,0.07633587718009949,0.0,0.0,0.23409669101238248,0.5648854970932007,0.8498727679252625,0.9949109554290771,0.9745547175407407,0.8295165300369263,0.40712466835975647,0.10941475629806519,0.1679389327764511,0.1653943955898285,0.09414758533239363,0.05343511328101158,0.05852417275309563,0.045801527798175805,0.0559796430170536,0.05343511328101158,0.0559796430170536,0.05852417275309563,0.05852417275309563,0.05089058354496956,0.05852417275309563,0.06106870248913765,0.0,0.0,0.0,0.0,0.0,0.0,0.0,0.0,0.0,0.0,0.0,0.0,0.0,0.0,0.0,0.0,0.0,0.0,0.0,0.0,0.0,0.0,0.0,0.0,0.0,0.0,0.0,0.0,0.0,0.0,0.0,0.0,0.0,0.0,0.0,0.0,0.0,0.0,0.0,0.0,0.0,0.0,0.0,0.0,0.0,0.0,0.0,0.0,0.0,0.0,0.0,0.0,0.0,0.0,0.0,0.0,0.0,0.0,0.0,0.0,0.0,0.0,0.0,0.0,0.0,0.0,0.0,0.0,0.0,0.0,0.0,0.0,0.0,0.0,0.0,0.0,0.0,0.0,0.0,0.0,0.0,0.0
2025-07-08 12:29:48,394 - INFO - Ligne 4: danger_level=32.556514739990234, catégorie=30.0-39.0
2025-07-08 12:29:48,394 - INFO -   -> Créé categorize/30.0-39.0/line_0004.csv
2025-07-08 12:29:48,398 - INFO - Traitement de la ligne 5: 1.0,0.7972602844238281,0.3205479383468628,0.04383561760187149,0.049315068870782845,0.06575342267751694,0.030136985704302788,0.008219177834689617,0.005479452200233936,0.010958904400467873,0.013698630034923552,0.0,0.002739726100116968,0.016438355669379234,0.010958904400467873,0.013698630034923552,0.010958904400467873,0.024657534435391423,0.021917808800935745,0.019178081303834915,0.024657534435391423,0.049315068870782845,0.049315068870782845,0.04109589010477065,0.04383561760187149,0.05753424763679504,0.06301369518041611,0.049315068870782845,0.05205479636788368,0.06575342267751694,0.06575342267751694,0.07397260516881943,0.08493150770664215,0.11232876777648924,0.11232876777648924,0.0904109552502632,0.09589041024446487,0.09863013774156569,0.0904109552502632,0.0821917802095413,0.08493150770664215,0.09315068274736403,0.09315068274736403,0.0904109552502632,0.09589041024446487,0.09589041024446487,0.09589041024446487,0.09315068274736403,0.0904109552502632,0.10136986523866652,0.09589041024446487,0.10136986523866652,0.08767123520374298,0.10136986523866652,0.09863013774156569,0.09863013774156569,0.1260273903608322,0.15342465043067932,0.1698630154132843,0.1808219105005264,0.1890410929918289,0.1808219105005264,0.17260274291038513,0.1369863003492355,0.08767123520374298,0.08493150770664215,0.07671232521533966,0.05479452013969421,0.05205479636788368,0.06301369518041611,0.05753424763679504,0.0356164388358593,0.07945205271244049,0.32602739334106445,0.7479451894760131,1.0,0.7397260069847107,0.2630136907100677,0.05753424763679504,0.05753424763679504,0.06849315017461777,0.0356164388358593,0.019178081303834915,0.016438355669379234,0.019178081303834915,0.010958904400467873,0.008219177834689617,0.013698630034923552,0.016438355669379234,0.019178081303834915,0.021917808800935745,0.0,0.0,0.0,0.0,0.0,0.0,0.0,0.0,0.0,0.0,0.0,0.0,0.0,0.0,0.0,0.0,0.0,0.0,0.0,0.0,0.0,0.0,0.0,0.0,0.0,0.0,0.0,0.0,0.0,0.0,0.0,0.0,0.0,0.0,0.0,0.0,0.0,0.0,0.0,0.0,0.0,0.0,0.0,0.0,0.0,0.0,0.0,0.0,0.0,0.0,0.0,0.0,0.0,0.0,0.0,0.0,0.0,0.0,0.0,0.0,0.0,0.0,0.0,0.0,0.0,0.0,0.0,0.0,0.0,0.0,0.0,0.0,0.0,0.0,0.0,0.0,0.0,0.0,0.0,0.0,0.0,0.0,0.0,0.0,0.0,0.0,0.0,0.0,0.0,0.0,0.0,0.0,0.0,0.0,0.0,0.0,0.0
2025-07-08 12:29:49,473 - INFO - Ligne 5: danger_level=85.18203735351562, catégorie=80.0-89.0
2025-07-08 12:29:49,473 - INFO -   -> Créé categorize/80.0-89.0/line_0005.csv
2025-07-08 12:29:49,480 - INFO - Traitement de la ligne 6: 0.9094076752662658,0.97560977935791,0.5331010222434998,0.13414634764194489,0.0662020891904831,0.0,0.010452961549162865,0.012195121496915816,0.03135888651013374,0.1463414579629898,0.32404181361198425,0.40418118238449097,0.4285714328289032,0.4372822344303131,0.44773519039154047,0.4564459919929504,0.449477344751358,0.449477344751358,0.445993036031723,0.43902438879013056,0.42334493994712824,0.4146341383457184,0.40592333674430847,0.37979093194007874,0.3745644688606262,0.3710801303386688,0.36236932873725886,0.350174218416214,0.350174218416214,0.3588850200176239,0.3641115128993988,0.37630662322044367,0.3815330862998962,0.40418118238449097,0.43902438879013056,0.449477344751358,0.4721254408359528,0.47560974955558777,0.4912891983985901,0.5121951103210449,0.5104529857635498,0.5121951103210449,0.5348432064056396,0.5017421841621399,0.5121951103210449,0.5261324048042296,0.5348432064056396,0.5121951103210449,0.5017421841621399,0.49651569128036493,0.5278745889663696,0.50696861743927,0.5104529857635498,0.5383275151252747,0.49477350711822504,0.4773519039154053,0.5174216032028198,0.5261324048042296,0.5139372944831848,0.5209059119224548,0.49477350711822504,0.5156794190406799,0.5243902206420897,0.5121951103210449,0.50696861743927,0.5296167135238647,0.5139372944831848,0.5226480960845947,0.5383275151252747,0.5435540080070496,0.5644599199295044,0.5818815231323241,0.599303126335144,0.5679442286491394,0.5871080160140991,0.5940766334533691,0.5348432064056396,0.5853658318519592,0.5714285969734192,0.5087108016014099,0.4808362424373626,0.5226480960845947,0.50696861743927,0.4808362424373626,0.4843205511569977,0.5156794190406799,0.503484308719635,0.49477350711822504,0.47560974955558777,0.4930313527584076,0.503484308719635,0.4773519039154053,0.5522648096084595,0.7421602606773376,0.799651563167572,0.8240417838096618,1.0,0.9006968736648558,0.4094076752662658,0.17421603202819824,0.10801393538713457,0.07317072898149489,0.06445992738008499,0.04529616609215736,0.08188153058290482,0.2073170691728592,0.36062717437744146,0.44076654314994806,0.445993036031723,0.458188146352768,0.46689894795417786,0.4721254408359528,0.4634146392345429,0.4634146392345429,0.4651567935943604,0.449477344751358,0.0,0.0,0.0,0.0,0.0,0.0,0.0,0.0,0.0,0.0,0.0,0.0,0.0,0.0,0.0,0.0,0.0,0.0,0.0,0.0,0.0,0.0,0.0,0.0,0.0,0.0,0.0,0.0,0.0,0.0,0.0,0.0,0.0,0.0,0.0,0.0,0.0,0.0,0.0,0.0,0.0,0.0,0.0,0.0,0.0,0.0,0.0,0.0,0.0,0.0,0.0,0.0,0.0,0.0,0.0,0.0,0.0,0.0,0.0,0.0,0.0,0.0,0.0,0.0,0.0,0.0,0.0,0.0,0.0,0.0,0.0,0.0
2025-07-08 12:29:49,515 - ERROR - Erreur API pour ligne 6: 500
2025-07-08 12:29:49,516 - ERROR -   -> {"error":"The number of derivatives at boundaries does not match: expected 3, got 0+0"}
2025-07-08 12:29:49,522 - INFO - Traitement de la ligne 7: 0.9278033971786499,0.8663594722747802,0.299539178609848,0.0,0.23195084929466248,0.31797236204147333,0.27496159076690674,0.2626728117465973,0.2703533172607422,0.2688172161579132,0.27649769186973566,0.2718893885612488,0.2718893885612488,0.26728111505508423,0.2703533172607422,0.2718893885612488,0.26728111505508423,0.2703533172607422,0.27496159076690674,0.27496159076690674,0.2734254896640777,0.2718893885612488,0.27496159076690674,0.2795698940753937,0.27496159076690674,0.27649769186973566,0.28264209628105164,0.2872503697872162,0.28110599517822266,0.2841781973838806,0.2918586730957031,0.301075279712677,0.301075279712677,0.3087557554244995,0.32258063554763794,0.3271889388561249,0.3256528377532959,0.33026114106178284,0.34408602118492126,0.34562212228775024,0.3425499200820923,0.34408602118492126,0.3486943244934082,0.3364055156707764,0.3164362609386444,0.29646697640419006,0.2841781973838806,0.2703533172607422,0.2534562349319458,0.24577572941780088,0.24423962831497192,0.24116744101047516,0.23502303659915924,0.23041474819183347,0.23348695039749143,0.2380952388048172,0.23195084929466248,0.2380952388048172,0.24731183052062988,0.2519201338291168,0.2519201338291168,0.2534562349319458,0.25960060954093933,0.2626728117465973,0.2549923062324524,0.25806450843811035,0.25806450843811035,0.2626728117465973,0.2519201338291168,0.2519201338291168,0.2534562349319458,0.25806450843811035,0.24731183052062988,0.24423962831497192,0.25038403272628784,0.2519201338291168,0.2488479316234589,0.24270352721214292,0.2488479316234589,0.2519201338291168,0.24577572941780088,0.2519201338291168,0.26574501395225525,0.27496159076690674,0.27649769186973566,0.2872503697872162,0.299539178609848,0.2933947741985321,0.2872503697872162,0.2857142984867096,0.2887864708900452,0.2795698940753937,0.25960060954093933,0.24423962831497192,0.24731183052062988,0.24423962831497192,0.24270352721214292,0.23963133990764615,0.24270352721214292,0.24270352721214292,0.2380952388048172,0.24116744101047516,0.2488479316234589,0.2549923062324524,0.25806450843811035,0.26574501395225525,0.3087557554244995,0.4685099720954895,0.7910906076431273,1.0,0.6129032373428345,0.024577572941780087,0.07066052407026291,0.2780337929725647,0.30568355321884155,0.2795698940753937,0.2718893885612488,0.27496159076690674,0.28264209628105164,0.2795698940753937,0.2780337929725647,0.2780337929725647,0.28264209628105164,0.2872503697872162,0.28264209628105164,0.28110599517822266,0.2887864708900452,0.2918586730957031,0.2872503697872162,0.0,0.0,0.0,0.0,0.0,0.0,0.0,0.0,0.0,0.0,0.0,0.0,0.0,0.0,0.0,0.0,0.0,0.0,0.0,0.0,0.0,0.0,0.0,0.0,0.0,0.0,0.0,0.0,0.0,0.0,0.0,0.0,0.0,0.0,0.0,0.0,0.0,0.0,0.0,0.0,0.0,0.0,0.0,0.0,0.0,0.0,0.0,0.0,0.0,0.0,0.0,0.0,0.0,0.0,0.0,0.0,0.0,0.0,0.0
2025-07-08 12:29:50,322 - INFO - Ligne 7: danger_level=53.67897415161133, catégorie=50.0-59.0
2025-07-08 12:29:50,323 - INFO -   -> Créé categorize/50.0-59.0/line_0007.csv
2025-07-08 12:29:50,328 - INFO - Traitement de la ligne 8: 1.0,0.9142300486564637,0.4736842215061188,0.0,0.06432748585939407,0.317738801240921,0.40545809268951416,0.3918128609657288,0.3820662796497345,0.401559442281723,0.4191033244132996,0.43664717674255366,0.4483430683612824,0.45614033937454224,0.471734881401062,0.48538011312484736,0.5009746551513672,0.5146198868751526,0.528265118598938,0.545808970928192,0.5575048923492432,0.5789473652839661,0.5984405279159546,0.6023392081260681,0.61208575963974,0.6159843802452089,0.6218323707580566,0.6101364493370056,0.5945419073104857,0.5847952961921692,0.5886939764022827,0.5692007541656494,0.5516569018363953,0.5341130495071411,0.5204678177833557,0.4951266944408417,0.471734881401062,0.46393761038780207,0.4541910290718079,0.4483430683612824,0.446393758058548,0.4424951374530792,0.446393758058548,0.4424951374530792,0.4424951374530792,0.4346978664398193,0.44054579734802246,0.4327485263347626,0.42495125532150263,0.42105263471603394,0.4230019450187683,0.4191033244132996,0.4132553637027741,0.40935671329498285,0.40935671329498285,0.40545809268951416,0.39961013197898865,0.40545809268951416,0.4230019450187683,0.43079921603202814,0.43664717674255366,0.43664717674255366,0.45224171876907354,0.4619883000850677,0.45614033937454224,0.4444444477558136,0.4327485263347626,0.4113060534000397,0.39376217126846313,0.3898635506629944,0.38401558995246887,0.3820662796497345,0.37816762924194336,0.38011696934700007,0.3859649002552032,0.3859649002552032,0.3918128609657288,0.39766082167625433,0.4132553637027741,0.42495125532150263,0.45808967947959894,0.5477582812309265,0.7212475538253784,0.8693957328796386,0.8421052694320679,0.528265118598938,0.13450291752815247,0.08966861665248871,0.2846003770828247,0.4035087823867798,0.42105263471603394,0.4171539843082428,0.42105263471603394,0.42690059542655934,0.43079921603202814,0.4327485263347626,0.4346978664398193,0.45224171876907354,0.4658869504928589,0.4756335318088531,0.0,0.0,0.0,0.0,0.0,0.0,0.0,0.0,0.0,0.0,0.0,0.0,0.0,0.0,0.0,0.0,0.0,0.0,0.0,0.0,0.0,0.0,0.0,0.0,0.0,0.0,0.0,0.0,0.0,0.0,0.0,0.0,0.0,0.0,0.0,0.0,0.0,0.0,0.0,0.0,0.0,0.0,0.0,0.0,0.0,0.0,0.0,0.0,0.0,0.0,0.0,0.0,0.0,0.0,0.0,0.0,0.0,0.0,0.0,0.0,0.0,0.0,0.0,0.0,0.0,0.0,0.0,0.0,0.0,0.0,0.0,0.0,0.0,0.0,0.0,0.0,0.0,0.0,0.0,0.0,0.0,0.0,0.0,0.0,0.0,0.0,0.0,0.0
2025-07-08 12:29:51,038 - INFO - Ligne 8: danger_level=37.83316421508789, catégorie=30.0-39.0
2025-07-08 12:29:51,039 - INFO -   -> Créé categorize/30.0-39.0/line_0008.csv
2025-07-08 12:29:51,044 - INFO - Traitement de la ligne 9: 0.997429311275482,0.8611825108528137,0.3650385737419128,0.07197943329811096,0.08226221054792403,0.10025706887245178,0.07455012947320938,0.0514138825237751,0.0514138825237751,0.04370179772377014,0.061696659773588174,0.053984574973583214,0.04627249389886856,0.04627249389886856,0.05655527114868164,0.05655527114868164,0.05655527114868164,0.05912596359848976,0.07197943329811096,0.06940873712301254,0.05912596359848976,0.06940873712301254,0.08226221054792403,0.07455012947320938,0.07969151437282562,0.09768637269735336,0.09511568397283554,0.09511568397283554,0.1028277650475502,0.10539846122264862,0.1028277650475502,0.10539846122264862,0.1028277650475502,0.12596401572227478,0.13367609679698944,0.11825192719697952,0.11053984612226486,0.13110539317131042,0.13624678552150726,0.12082262337207794,0.10539846122264862,0.11311054229736328,0.11311054229736328,0.11311054229736328,0.1028277650475502,0.1028277650475502,0.10539846122264862,0.1028277650475502,0.09511568397283554,0.11053984612226486,0.11053984612226486,0.12339331954717636,0.11825192719697952,0.11311054229736328,0.1156812310218811,0.1156812310218811,0.11311054229736328,0.13110539317131042,0.1285347044467926,0.12339331954717636,0.13881747424602509,0.15938302874565125,0.16966581344604492,0.1825192868709564,0.1876606643199921,0.19023136794567108,0.2005141377449036,0.17737789452075958,0.13624678552150726,0.10796914994716644,0.09254498779773712,0.08740359544754028,0.07197943329811096,0.06683804839849472,0.07197943329811096,0.0642673522233963,0.04884318634867668,0.04627249389886856,0.1542416512966156,0.38303342461586,0.7660668492317199,1.0,0.740359902381897,0.24421593546867368,0.03856041282415391,0.06683804839849472,0.07197943329811096,0.01799485832452774,0.010282776318490503,0.012853470630943775,0.010282776318490503,0.010282776318490503,0.0,0.005141388159245253,0.02313624694943428,0.02313624694943428,0.0025706940796226263,0.0,0.0,0.0,0.0,0.0,0.0,0.0,0.0,0.0,0.0,0.0,0.0,0.0,0.0,0.0,0.0,0.0,0.0,0.0,0.0,0.0,0.0,0.0,0.0,0.0,0.0,0.0,0.0,0.0,0.0,0.0,0.0,0.0,0.0,0.0,0.0,0.0,0.0,0.0,0.0,0.0,0.0,0.0,0.0,0.0,0.0,0.0,0.0,0.0,0.0,0.0,0.0,0.0,0.0,0.0,0.0,0.0,0.0,0.0,0.0,0.0,0.0,0.0,0.0,0.0,0.0,0.0,0.0,0.0,0.0,0.0,0.0,0.0,0.0,0.0,0.0,0.0,0.0,0.0,0.0,0.0,0.0,0.0,0.0,0.0,0.0,0.0,0.0,0.0,0.0,0.0
2025-07-08 12:29:51,800 - INFO - Ligne 9: danger_level=50.347312927246094, catégorie=50.0-59.0
2025-07-08 12:29:51,800 - INFO -   -> Créé categorize/50.0-59.0/line_0009.csv
2025-07-08 12:29:51,805 - INFO - Traitement de la ligne 10: 1.0,0.9338422417640686,0.6310432553291321,0.18575063347816467,0.12722645699977875,0.1959287524223328,0.11959287524223328,0.04834605753421784,0.05343511328101158,0.07379134744405745,0.07124681770801544,0.0661577582359314,0.07379134744405745,0.09160305559635161,0.08142493665218353,0.07888040691614151,0.07379134744405745,0.0890585258603096,0.08142493665218353,0.07633587718009949,0.07633587718009949,0.09414758533239363,0.09414758533239363,0.07888040691614151,0.09923664480447768,0.1119592860341072,0.11704834550619124,0.10178116708993912,0.12468193471431732,0.13740457594394684,0.15267175436019895,0.1323155164718628,0.14758269488811493,0.14758269488811493,0.16030533611774445,0.14249363541603088,0.16030533611774445,0.14249363541603088,0.16284987330436707,0.1348600536584854,0.14758269488811493,0.13740457594394684,0.15267175436019895,0.11704834550619124,0.1348600536584854,0.12722645699977875,0.12977099418640137,0.10178116708993912,0.10687022656202316,0.10432569682598114,0.10432569682598114,0.09923664480447768,0.09669211506843568,0.10432569682598114,0.10941475629806519,0.10432569682598114,0.10687022656202316,0.13740457594394684,0.1119592860341072,0.12977099418640137,0.12722645699977875,0.1704834550619125,0.16284987330436707,0.19083969295024872,0.21628499031066892,0.24427480995655057,0.23155216872692108,0.23918575048446652,0.19083969295024872,0.21628499031066892,0.18575063347816467,0.1552162915468216,0.12213740497827529,0.12722645699977875,0.10432569682598114,0.10687022656202316,0.10178116708993912,0.11450381577014924,0.10432569682598114,0.0559796430170536,0.0,0.04325699806213378,0.28498727083206177,0.5445292592048645,0.816793918609619,0.961832046508789,0.961832046508789,0.8142493367195129,0.41730278730392456,0.09669211506843568,0.15267175436019895,0.1348600536584854,0.08396946638822556,0.04834605753421784,0.06870228797197342,0.038167938590049744,0.05343511328101158,0.06106870248913765,0.06870228797197342,0.04325699806213378,0.06106870248913765,0.0661577582359314,0.06106870248913765,0.0,0.0,0.0,0.0,0.0,0.0,0.0,0.0,0.0,0.0,0.0,0.0,0.0,0.0,0.0,0.0,0.0,0.0,0.0,0.0,0.0,0.0,0.0,0.0,0.0,0.0,0.0,0.0,0.0,0.0,0.0,0.0,0.0,0.0,0.0,0.0,0.0,0.0,0.0,0.0,0.0,0.0,0.0,0.0,0.0,0.0,0.0,0.0,0.0,0.0,0.0,0.0,0.0,0.0,0.0,0.0,0.0,0.0,0.0,0.0,0.0,0.0,0.0,0.0,0.0,0.0,0.0,0.0,0.0,0.0,0.0,0.0,0.0,0.0,0.0,0.0,0.0,0.0,0.0,0.0,0.0,0.0,0.0,0.0,0.0
2025-07-08 12:29:52,480 - INFO - Ligne 10: danger_level=38.78187942504883, catégorie=30.0-39.0
2025-07-08 12:29:52,481 - INFO -   -> Créé categorize/30.0-39.0/line_0010.csv
2025-07-08 12:29:52,485 - INFO - Traitement de la ligne 11: 1.0,0.800000011920929,0.4167938828468322,0.11603053659200668,0.0,0.09312976896762849,0.13129770755767822,0.09312976896762849,0.08396946638822556,0.08091603219509123,0.06870228797197342,0.07480916380882262,0.06564885377883911,0.05190839618444442,0.06870228797197342,0.07022900879383087,0.06564885377883911,0.09007633477449416,0.1053435131907463,0.12213740497827529,0.1480915993452072,0.17251908779144287,0.2152671813964844,0.23664122819900513,0.26259541511535645,0.29923665523529047,0.32366412878036493,0.34809160232543945,0.3862595558166504,0.4167938828468322,0.41068702936172485,0.43511450290679926,0.4305343627929688,0.4213740527629852,0.42595419287681574,0.40458014607429504,0.3847328126430512,0.34656488895416254,0.3145038187503814,0.30229008197784424,0.27175572514534,0.256488561630249,0.238167941570282,0.22595420479774475,0.23511449992656708,0.21374045312404633,0.21221373975276947,0.2549618184566498,0.23206107318401337,0.2549618184566498,0.30839693546295166,0.2961831986904144,0.2839694619178772,0.2778626084327698,0.22137404978275296,0.187786266207695,0.18320611119270325,0.1786259561777115,0.1938931345939636,0.18625953793525693,0.17557251453399658,0.16641221940517423,0.17099235951900482,0.15267175436019895,0.14351144433021543,0.20000000298023224,0.41374045610427856,0.7633587718009949,1.0,0.8610687255859374,0.5526717305183411,0.24732825160026553,0.02595419809222221,0.08549617975950241,0.12977099418640137,0.0793893113732338,0.07633587718009949,0.07480916380882262,0.04885496199131012,0.05190839618444442,0.035114504396915436,0.042748089879751205,0.0,0.0,0.0,0.0,0.0,0.0,0.0,0.0,0.0,0.0,0.0,0.0,0.0,0.0,0.0,0.0,0.0,0.0,0.0,0.0,0.0,0.0,0.0,0.0,0.0,0.0,0.0,0.0,0.0,0.0,0.0,0.0,0.0,0.0,0.0,0.0,0.0,0.0,0.0,0.0,0.0,0.0,0.0,0.0,0.0,0.0,0.0,0.0,0.0,0.0,0.0,0.0,0.0,0.0,0.0,0.0,0.0,0.0,0.0,0.0,0.0,0.0,0.0,0.0,0.0,0.0,0.0,0.0,0.0,0.0,0.0,0.0,0.0,0.0,0.0,0.0,0.0,0.0,0.0,0.0,0.0,0.0,0.0,0.0,0.0,0.0,0.0,0.0,0.0,0.0,0.0,0.0,0.0,0.0,0.0,0.0,0.0,0.0,0.0,0.0,0.0,0.0,0.0,0.0,0.0,0.0
2025-07-08 12:29:53,225 - INFO - Ligne 11: danger_level=30.351408004760742, catégorie=30.0-39.0
2025-07-08 12:29:53,226 - INFO -   -> Créé categorize/30.0-39.0/line_0011.csv
2025-07-08 12:29:53,231 - INFO - Traitement de la ligne 12: 0.9696969985961914,1.0,0.5232323408126831,0.14747475087642667,0.06060606241226196,0.014141414314508438,0.004040404222905636,0.0060606058686971664,0.05656565725803375,0.20606060326099396,0.3757575750350952,0.42222222685813904,0.43232324719429016,0.4343434274196625,0.4626262485980988,0.4747474789619446,0.4585858583450317,0.4484848380088806,0.4484848380088806,0.4464646577835083,0.4282828271389008,0.41616162657737726,0.40404039621353144,0.4080808162689209,0.38787877559661865,0.37979796528816223,0.3696969747543335,0.3676767647266388,0.37373736500740046,0.3676767647266388,0.37171718478202814,0.39191919565200806,0.4020202159881592,0.41616162657737726,0.4444444477558136,0.4747474789619446,0.486868679523468,0.4909090995788574,0.5030303001403809,0.5232323408126831,0.5272727012634277,0.5333333611488342,0.5272727012634277,0.5272727012634277,0.5272727012634277,0.521212100982666,0.5232323408126831,0.5292929410934448,0.5171717405319214,0.5070707201957704,0.5171717405319214,0.5232323408126831,0.5070707201957704,0.4969696998596192,0.5030303001403809,0.521212100982666,0.5111111402511597,0.5030303001403809,0.5111111402511597,0.5232323408126831,0.5070707201957704,0.5070707201957704,0.513131320476532,0.5111111402511597,0.5111111402511597,0.5090909004211426,0.513131320476532,0.5272727012634277,0.539393961429596,0.5434343218803406,0.54747474193573,0.573737382888794,0.5979797840118408,0.6000000238418579,0.5797979831695557,0.5575757622718811,0.573737382888794,0.6020202040672302,0.5757575631141664,0.5252525210380553,0.5151515007019042,0.4949494898319244,0.48282828927040095,0.4787878692150116,0.4767676889896393,0.4747474789619446,0.48282828927040095,0.4909090995788574,0.4909090995788574,0.4767676889896393,0.48282828927040095,0.4949494898319244,0.48282828927040095,0.46868687868118286,0.539393961429596,0.723232328891754,0.81010103225708,0.8060606122016906,1.0,0.9717171788215635,0.4484848380088806,0.13535353541374207,0.05454545468091965,0.018181817606091496,0.004040404222905636,0.0,0.052525252103805535,0.18585859239101407,0.35757574439048767,0.44040402770042414,0.4606060683727264,0.4787878692150116,0.486868679523468,0.486868679523468,0.4787878692150116,0.5030303001403809,0.4949494898319244,0.4727272689342498,0.0,0.0,0.0,0.0,0.0,0.0,0.0,0.0,0.0,0.0,0.0,0.0,0.0,0.0,0.0,0.0,0.0,0.0,0.0,0.0,0.0,0.0,0.0,0.0,0.0,0.0,0.0,0.0,0.0,0.0,0.0,0.0,0.0,0.0,0.0,0.0,0.0,0.0,0.0,0.0,0.0,0.0,0.0,0.0,0.0,0.0,0.0,0.0,0.0,0.0,0.0,0.0,0.0,0.0,0.0,0.0,0.0,0.0,0.0,0.0,0.0,0.0,0.0,0.0,0.0,0.0,0.0,0.0,0.0,0.0
2025-07-08 12:29:53,246 - ERROR - Erreur API pour ligne 12: 500
2025-07-08 12:29:53,247 - ERROR -   -> {"error":"The number of derivatives at boundaries does not match: expected 3, got 0+0"}
2025-07-08 12:29:53,252 - INFO - Traitement de la ligne 13: 1.0,0.9095022678375245,0.7194570302963257,0.5384615659713745,0.3257918655872345,0.14479638636112213,0.0859728530049324,0.11312217265367508,0.14027149975299835,0.11764705926179884,0.10407239943742752,0.126696839928627,0.15837104618549347,0.14479638636112213,0.14479638636112213,0.1493212729692459,0.18552036583423612,0.1764705926179886,0.16289593279361725,0.18552036583423612,0.20814479887485504,0.18552036583423612,0.19457013905048368,0.2036199122667313,0.2171945720911026,0.2171945720911026,0.2126696854829788,0.2171945720911026,0.24434389173984528,0.2352941185235977,0.23981900513172147,0.23981900513172147,0.253393679857254,0.2352941185235977,0.2126696854829788,0.2171945720911026,0.2126696854829788,0.18552036583423612,0.1493212729692459,0.1312217265367508,0.1312217265367508,0.10407239943742752,0.07692307978868483,0.06334841996431351,0.07692307978868483,0.06334841996431351,0.04524886980652809,0.04977375641465187,0.07692307978868483,0.05429864302277565,0.04072398319840431,0.031674209982156754,0.036199096590280526,0.031674209982156754,0.022624434903264046,0.022624434903264046,0.04072398319840431,0.027149321511387825,0.004524887073785067,0.009049774147570131,0.022624434903264046,0.0,0.0,0.018099548295140263,0.031674209982156754,0.018099548295140263,0.009049774147570131,0.018099548295140263,0.04072398319840431,0.036199096590280526,0.027149321511387825,0.036199096590280526,0.05882352963089943,0.04524886980652809,0.027149321511387825,0.036199096590280526,0.04977375641465187,0.031674209982156754,0.031674209982156754,0.04072398319840431,0.05429864302277565,0.04977375641465187,0.031674209982156754,0.04524886980652809,0.04977375641465187,0.04977375641465187,0.031674209982156754,0.036199096590280526,0.05882352963089943,0.05429864302277565,0.04524886980652809,0.04524886980652809,0.05882352963089943,0.05882352963089943,0.04524886980652809,0.04977375641465187,0.07239819318056105,0.06787330657243729,0.05429864302277565,0.06787330657243729,0.08144796639680862,0.06334841996431351,0.04524886980652809,0.06787330657243729,0.1085972860455513,0.12217194586992264,0.09502262622117996,0.1085972860455513,0.11764705926179884,0.1085972860455513,0.09954751282930374,0.11312217265367508,0.126696839928627,0.09049773961305618,0.05882352963089943,0.07239819318056105,0.07692307978868483,0.05882352963089943,0.05429864302277565,0.07239819318056105,0.09954751282930374,0.14027149975299835,0.3303167521953583,0.610859751701355,0.791855216026306,0.8868778347969054,0.8914027214050293,0.7466063499450684,0.59276020526886,0.3076923191547394,0.12217194586992264,0.09502262622117996,0.126696839928627,0.07692307978868483,0.06334841996431351,0.09502262622117996,0.126696839928627,0.12217194586992264,0.1085972860455513,0.14479638636112213,0.16289593279361725,0.12217194586992264,0.126696839928627,0.12217194586992264,0.13574661314487457,0.11764705926179884,0.14027149975299835,0.14027149975299835,0.13574661314487457,0.14479638636112213,0.12217194586992264,0.0,0.0,0.0,0.0,0.0,0.0,0.0,0.0,0.0,0.0,0.0,0.0,0.0,0.0,0.0,0.0,0.0,0.0,0.0,0.0,0.0,0.0,0.0,0.0,0.0,0.0,0.0,0.0,0.0,0.0,0.0,0.0,0.0,0.0,0.0,0.0,0.0
2025-07-08 12:29:53,922 - INFO - Ligne 13: danger_level=30.50613784790039, catégorie=30.0-39.0
2025-07-08 12:29:53,924 - INFO -   -> Créé categorize/30.0-39.0/line_0013.csv
2025-07-08 12:29:53,933 - INFO - Traitement de la ligne 14: 1.0,0.9067164063453673,0.5261194109916687,0.1940298527479172,0.0746268630027771,0.06343283504247665,0.02238805964589119,0.02985074557363987,0.003731343196704984,0.011194029822945595,0.003731343196704984,0.026119403541088104,0.018656715750694275,0.033582091331481934,0.003731343196704984,0.02985074557363987,0.014925372786819935,0.02238805964589119,0.0074626863934099666,0.02985074557363987,0.02238805964589119,0.026119403541088104,0.011194029822945595,0.02985074557363987,0.0,0.02985074557363987,0.014925372786819935,0.04477611929178238,0.03731343150138855,0.0746268630027771,0.08208955079317092,0.12313432991504668,0.12313432991504668,0.15671642124652863,0.13805970549583435,0.16044776141643524,0.13805970549583435,0.15671642124652863,0.14552238583564758,0.1492537260055542,0.14179104566574097,0.14552238583564758,0.1268656700849533,0.13805970549583435,0.12313432991504668,0.1343283653259277,0.13059701025485992,0.14552238583564758,0.1492537260055542,0.17164179682731628,0.16791044175624847,0.18656715750694275,0.15671642124652863,0.18283581733703613,0.16044776141643524,0.16417910158634183,0.1492537260055542,0.16044776141643524,0.14179104566574097,0.152985081076622,0.13059701025485992,0.1492537260055542,0.13805970549583435,0.152985081076622,0.14179104566574097,0.14552238583564758,0.13059701025485992,0.14552238583564758,0.1492537260055542,0.1753731369972229,0.16044776141643524,0.18656715750694275,0.15671642124652863,0.17164179682731628,0.15671642124652863,0.15671642124652863,0.14552238583564758,0.16417910158634183,0.14179104566574097,0.152985081076622,0.1343283653259277,0.152985081076622,0.14552238583564758,0.16044776141643524,0.1492537260055542,0.15671642124652863,0.1492537260055542,0.17164179682731628,0.152985081076622,0.152985081076622,0.12313432991504668,0.152985081076622,0.15671642124652863,0.16044776141643524,0.15671642124652863,0.16417910158634183,0.1343283653259277,0.16044776141643524,0.14179104566574097,0.14179104566574097,0.14179104566574097,0.1492537260055542,0.1492537260055542,0.16044776141643524,0.14179104566574097,0.17164179682731628,0.1492537260055542,0.1753731369972229,0.1753731369972229,0.19029851257801053,0.16417910158634183,0.17164179682731628,0.1492537260055542,0.16417910158634183,0.16417910158634183,0.3246268630027771,0.5335820913314819,0.7425373196601868,0.9067164063453673,0.8843283653259277,0.7201492786407471,0.33955225348472595,0.17910447716712952,0.1044776141643524,0.08208955079317092,0.06716418266296387,0.05597015097737312,0.0783582106232643,0.05597015097737312,0.05970149114727974,0.04104477539658546,0.02985074557363987,0.0074626863934099666,0.014925372786819935,0.003731343196704984,0.0,0.0,0.0,0.0,0.0,0.0,0.0,0.0,0.0,0.0,0.0,0.0,0.0,0.0,0.0,0.0,0.0,0.0,0.0,0.0,0.0,0.0,0.0,0.0,0.0,0.0,0.0,0.0,0.0,0.0,0.0,0.0,0.0,0.0,0.0,0.0,0.0,0.0,0.0,0.0,0.0,0.0,0.0,0.0,0.0,0.0,0.0,0.0,0.0,0.0,0.0,0.0,0.0
2025-07-08 12:29:54,695 - INFO - Ligne 14: danger_level=82.74165344238281, catégorie=80.0-89.0
2025-07-08 12:29:54,695 - INFO -   -> Créé categorize/80.0-89.0/line_0014.csv
2025-07-08 12:29:54,701 - INFO - Traitement de la ligne 15: 1.0,0.746835470199585,0.10632911324501036,0.07088607549667358,0.050632912665605545,0.030379746109247208,0.010126582346856594,0.015189873054623604,0.0,0.060759492218494415,0.10886076092720032,0.22025316953659055,0.2683544158935547,0.2936708927154541,0.30886074900627136,0.324050635099411,0.30886074900627136,0.351898729801178,0.34936708211898804,0.3645569682121277,0.3670886158943176,0.4101265966892242,0.41265821456909174,0.4430379867553711,0.4582278430461884,0.4835442900657654,0.48860758543014526,0.5265823006629944,0.5367088317871094,0.5569620132446289,0.5468354225158691,0.5341772437095642,0.48607593774795527,0.4430379867553711,0.39493671059608454,0.3594936728477478,0.29620254039764404,0.29620254039764404,0.25569620728492737,0.2506329119205475,0.23037974536418915,0.2329113930463791,0.2151898741722107,0.2278480976819992,0.22025316953659055,0.23797468841075897,0.21265822649002075,0.2329113930463791,0.22025316953659055,0.2329113930463791,0.2253164499998093,0.23797468841075897,0.2253164499998093,0.2430379688739777,0.23797468841075897,0.2430379688739777,0.23037974536418915,0.2430379688739777,0.22025316953659055,0.23037974536418915,0.24050633609294889,0.2810126543045044,0.2810126543045044,0.3113923966884613,0.3417721390724182,0.3670886158943176,0.34936708211898804,0.35696202516555786,0.3037974536418915,0.2506329119205475,0.21265822649002075,0.2227848172187805,0.18987341225147247,0.18987341225147247,0.18227848410606384,0.18734177947044367,0.1670886129140854,0.2050632983446121,0.19746835529804227,0.2101265788078308,0.2253164499998093,0.34936708211898804,0.5822784900665283,0.9113923907279968,0.8126582503318786,0.18987341225147247,0.037974681705236435,0.08607594668865204,0.02531645633280277,0.007594936527311803,0.017721518874168396,0.02278481051325798,0.017721518874168396,0.08860759437084198,0.1620253175497055,0.24810126423835757,0.25822785496711725,0.29620254039764404,0.29620254039764404,0.0,0.0,0.0,0.0,0.0,0.0,0.0,0.0,0.0,0.0,0.0,0.0,0.0,0.0,0.0,0.0,0.0,0.0,0.0,0.0,0.0,0.0,0.0,0.0,0.0,0.0,0.0,0.0,0.0,0.0,0.0,0.0,0.0,0.0,0.0,0.0,0.0,0.0,0.0,0.0,0.0,0.0,0.0,0.0,0.0,0.0,0.0,0.0,0.0,0.0,0.0,0.0,0.0,0.0,0.0,0.0,0.0,0.0,0.0,0.0,0.0,0.0,0.0,0.0,0.0,0.0,0.0,0.0,0.0,0.0,0.0,0.0,0.0,0.0,0.0,0.0,0.0,0.0,0.0,0.0,0.0,0.0,0.0,0.0,0.0,0.0,0.0,0.0,0.0
2025-07-08 12:29:55,473 - INFO - Ligne 15: danger_level=91.87896728515625, catégorie=90.0-99.0
2025-07-08 12:29:55,473 - INFO -   -> Créé categorize/90.0-99.0/line_0015.csv
2025-07-08 12:29:55,477 - INFO - Traitement de la ligne 16: 1.0,0.7964601516723632,0.3613569438457489,0.08554572612047195,0.07227138429880142,0.1828908622264862,0.2197640091180801,0.18879055976867676,0.18731562793254847,0.19764012098312375,0.17256636917591095,0.16814158856868744,0.1622418910264969,0.17551621794700623,0.1799409985542297,0.1799409985542297,0.1991150379180908,0.2197640091180801,0.2389380484819412,0.25958701968193054,0.27581119537353516,0.31563422083854675,0.3421829044818878,0.362831860780716,0.4041298031806946,0.4247787594795227,0.4483775794506073,0.4675516188144684,0.4852507412433624,0.491150438785553,0.49410030245780945,0.47935104370117193,0.4719763994216919,0.4528023600578308,0.43215340375900263,0.4026548564434052,0.38053098320961,0.37020647525787354,0.3421829044818878,0.30678465962409973,0.29646018147468567,0.2817109227180481,0.2699114978313446,0.2654867172241211,0.2684365808963776,0.2728613615036011,0.2699114978313446,0.28318583965301514,0.32300883531570435,0.3480826020240784,0.364306777715683,0.35840708017349243,0.3244837820529938,0.28318583965301514,0.2389380484819412,0.2418879121541977,0.23746313154697415,0.23008850216865537,0.23746313154697415,0.2389380484819412,0.23598819971084595,0.23746313154697415,0.2227138578891754,0.20796459913253784,0.2772861421108246,0.5324483513832092,0.8702064752578734,0.9380530714988707,0.6238937973976135,0.3008849620819092,0.0752212405204773,0.0,0.10914454609155654,0.15634217858314514,0.11651917546987532,0.11356931924819946,0.11356931924819946,0.1032448410987854,0.10029498487710951,0.08407079428434373,0.0,0.0,0.0,0.0,0.0,0.0,0.0,0.0,0.0,0.0,0.0,0.0,0.0,0.0,0.0,0.0,0.0,0.0,0.0,0.0,0.0,0.0,0.0,0.0,0.0,0.0,0.0,0.0,0.0,0.0,0.0,0.0,0.0,0.0,0.0,0.0,0.0,0.0,0.0,0.0,0.0,0.0,0.0,0.0,0.0,0.0,0.0,0.0,0.0,0.0,0.0,0.0,0.0,0.0,0.0,0.0,0.0,0.0,0.0,0.0,0.0,0.0,0.0,0.0,0.0,0.0,0.0,0.0,0.0,0.0,0.0,0.0,0.0,0.0,0.0,0.0,0.0,0.0,0.0,0.0,0.0,0.0,0.0,0.0,0.0,0.0,0.0,0.0,0.0,0.0,0.0,0.0,0.0,0.0,0.0,0.0,0.0,0.0,0.0,0.0,0.0,0.0,0.0,0.0,0.0,0.0,0.0,0.0
2025-07-08 12:29:56,105 - INFO - Ligne 16: danger_level=62.02782440185547, catégorie=60.0-69.0
2025-07-08 12:29:56,105 - INFO -   -> Créé categorize/60.0-69.0/line_0016.csv
2025-07-08 12:29:56,110 - INFO - Traitement de la ligne 17: 1.0,0.8828337788581848,0.19073569774627683,0.2179836481809616,0.14168937504291534,0.12806539237499237,0.12534059584140775,0.1117166206240654,0.12534059584140775,0.19346049427986145,0.2397820204496384,0.346049040555954,0.35694822669029236,0.37602180242538447,0.3787465989589691,0.3869209885597229,0.39509537816047674,0.40871936082839966,0.41144412755966187,0.430517703294754,0.4468664824962616,0.4768392443656921,0.4713896512985229,0.5122615694999695,0.531335175037384,0.5476838946342468,0.5640326738357544,0.5858310461044312,0.5613079071044922,0.5585830807685852,0.5095368027687073,0.4713896512985229,0.43324249982833857,0.40871936082839966,0.3514986336231232,0.3405994474887848,0.30245232582092285,0.2888283431529999,0.2806539535522461,0.2861035466194153,0.2670299708843231,0.29427793622016907,0.2779291570186615,0.2806539535522461,0.2806539535522461,0.2861035466194153,0.2724795639514923,0.29427793622016907,0.2724795639514923,0.2779291570186615,0.2779291570186615,0.2861035466194153,0.2779291570186615,0.3269754648208618,0.31880107522010803,0.3623978197574616,0.3787465989589691,0.3978201746940613,0.35422343015670776,0.3269754648208618,0.25885558128356934,0.2343324273824692,0.2179836481809616,0.215258851647377,0.19073569774627683,0.20435968041419983,0.19346049427986145,0.19891008734703064,0.20435968041419983,0.22615803778171537,0.24250681698322296,0.4168937206268311,0.7547683715820312,0.9591280817985535,0.36784741282463074,0.08446866273880003,0.08719345927238464,0.05177111551165581,0.019073570147156715,0.02179836481809616,0.0,0.05994550511240959,0.1035422310233116,0.20163488388061523,0.25068119168281555,0.26975476741790766,0.2779291570186615,0.31335151195526123,0.0,0.0,0.0,0.0,0.0,0.0,0.0,0.0,0.0,0.0,0.0,0.0,0.0,0.0,0.0,0.0,0.0,0.0,0.0,0.0,0.0,0.0,0.0,0.0,0.0,0.0,0.0,0.0,0.0,0.0,0.0,0.0,0.0,0.0,0.0,0.0,0.0,0.0,0.0,0.0,0.0,0.0,0.0,0.0,0.0,0.0,0.0,0.0,0.0,0.0,0.0,0.0,0.0,0.0,0.0,0.0,0.0,0.0,0.0,0.0,0.0,0.0,0.0,0.0,0.0,0.0,0.0,0.0,0.0,0.0,0.0,0.0,0.0,0.0,0.0,0.0,0.0,0.0,0.0,0.0,0.0,0.0,0.0,0.0,0.0,0.0,0.0,0.0,0.0,0.0,0.0,0.0,0.0,0.0,0.0,0.0,0.0,0.0,0.0,0.0
2025-07-08 12:29:56,616 - INFO - Ligne 17: danger_level=85.37385559082031, catégorie=80.0-89.0
2025-07-08 12:29:56,616 - INFO -   -> Créé categorize/80.0-89.0/line_0017.csv
2025-07-08 12:29:56,621 - INFO - Traitement de la ligne 18: 1.0,0.9659686088562013,0.7696335315704346,0.573298454284668,0.5235602259635925,0.5078533887863159,0.4672774970531464,0.4541884958744049,0.4620418846607208,0.4541884958744049,0.45026177167892456,0.4437172710895538,0.44895288348197937,0.4515706896781921,0.4437172710895538,0.44240838289260864,0.44109946489334106,0.43848168849945063,0.43455496430397034,0.4306282699108124,0.42277488112449646,0.41753926873207087,0.40706807374954224,0.395287960767746,0.3835078477859497,0.38219895958900446,0.3861256539821625,0.3808900415897369,0.3939790427684784,0.41884815692901606,0.4358638823032379,0.4528795778751373,0.4672774970531464,0.48952880501747126,0.5,0.48952880501747126,0.4973821938037872,0.5026177763938904,0.5091623067855834,0.5170156955718994,0.5418848395347595,0.5929319262504578,0.6439790725708008,0.7054973840713501,0.695026159286499,0.4712041914463043,0.1950261741876602,0.06806282699108124,0.011780104599893091,0.0,0.03272251412272453,0.11649214476346968,0.20157067477703092,0.2421465963125229,0.3023560345172882,0.38219895958900446,0.41884815692901606,0.4842931926250458,0.5811518430709839,0.6125654578208923,0.6020942330360413,0.6125654578208923,0.6191099286079407,0.6230366230010985,0.6387434601783752,0.6518324613571167,0.0,0.0,0.0,0.0,0.0,0.0,0.0,0.0,0.0,0.0,0.0,0.0,0.0,0.0,0.0,0.0,0.0,0.0,0.0,0.0,0.0,0.0,0.0,0.0,0.0,0.0,0.0,0.0,0.0,0.0,0.0,0.0,0.0,0.0,0.0,0.0,0.0,0.0,0.0,0.0,0.0,0.0,0.0,0.0,0.0,0.0,0.0,0.0,0.0,0.0,0.0,0.0,0.0,0.0,0.0,0.0,0.0,0.0,0.0,0.0,0.0,0.0,0.0,0.0,0.0,0.0,0.0,0.0,0.0,0.0,0.0,0.0,0.0,0.0,0.0,0.0,0.0,0.0,0.0,0.0,0.0,0.0,0.0,0.0,0.0,0.0,0.0,0.0,0.0,0.0,0.0,0.0,0.0,0.0,0.0,0.0,0.0,0.0,0.0,0.0,0.0,0.0,0.0,0.0,0.0,0.0,0.0,0.0,0.0,0.0,0.0,0.0,0.0,0.0,0.0,0.0,0.0,0.0,0.0,0.0,0.0,0.0
2025-07-08 12:29:56,642 - ERROR - Erreur API pour ligne 18: 500
2025-07-08 12:29:56,643 - ERROR -   -> {"error":"The number of derivatives at boundaries does not match: expected 2, got 0+0"}
2025-07-08 12:29:56,651 - INFO - Traitement de la ligne 19: 0.9016393423080444,0.9016393423080444,0.6775956153869629,0.4153005480766296,0.22404371201992035,0.14754098653793335,0.11475409567356108,0.10928961634635924,0.12021858245134352,0.13114753365516663,0.14754098653793335,0.13114753365516663,0.13114753365516663,0.1530054658651352,0.16939890384674072,0.16393442451953888,0.14754098653793335,0.1803278625011444,0.18579235672950745,0.19672131538391116,0.17486338317394257,0.19672131538391116,0.1912568360567093,0.20218579471111295,0.2076502740383148,0.22404371201992035,0.24043716490268707,0.23497267067432404,0.23497267067432404,0.2677595615386963,0.2786885201931,0.27322405576705927,0.2786885201931,0.28961747884750366,0.2950819730758667,0.2786885201931,0.2568306028842926,0.2459016442298889,0.2459016442298889,0.2076502740383148,0.16939890384674072,0.1420765072107315,0.12568305432796478,0.09289617836475372,0.06557376682758331,0.08743169158697128,0.09289617836475372,0.07650273293256758,0.054644808173179626,0.07103825360536575,0.07650273293256758,0.06010929122567177,0.0382513664662838,0.06010929122567177,0.06010929122567177,0.032786883413791656,0.027322404086589813,0.04371584579348564,0.032786883413791656,0.016393441706895828,0.016393441706895828,0.0382513664662838,0.0382513664662838,0.027322404086589813,0.01092896144837141,0.027322404086589813,0.04371584579348564,0.027322404086589813,0.01092896144837141,0.01092896144837141,0.0382513664662838,0.016393441706895828,0.0,0.027322404086589813,0.054644808173179626,0.027322404086589813,0.016393441706895828,0.04371584579348564,0.04371584579348564,0.027322404086589813,0.02185792289674282,0.0382513664662838,0.0382513664662838,0.04371584579348564,0.04371584579348564,0.06010929122567177,0.06557376682758331,0.049180328845977776,0.0382513664662838,0.06010929122567177,0.07103825360536575,0.054644808173179626,0.02185792289674282,0.054644808173179626,0.049180328845977776,0.04371584579348564,0.049180328845977776,0.06557376682758331,0.06557376682758331,0.0382513664662838,0.049180328845977776,0.06010929122567177,0.049180328845977776,0.032786883413791656,0.04371584579348564,0.08196721225976944,0.12568305432796478,0.12021858245134352,0.11475409567356108,0.13114753365516663,0.1530054658651352,0.10928961634635924,0.10928961634635924,0.13114753365516663,0.10928961634635924,0.08743169158697128,0.027322404086589813,0.06557376682758331,0.09289617836475372,0.07103825360536575,0.054644808173179626,0.12021858245134352,0.2568306028842926,0.5136612057685852,0.7704917788505553,0.9071038365364074,1.0,0.8961748480796814,0.6065573692321777,0.40983605384826655,0.23497267067432404,0.1038251370191574,0.07103825360536575,0.08743169158697128,0.1038251370191574,0.09836065769195555,0.09289617836475372,0.10928961634635924,0.13114753365516663,0.12021858245134352,0.11475409567356108,0.13114753365516663,0.15846994519233704,0.1530054658651352,0.13114753365516663,0.13661202788352966,0.17486338317394257,0.16393442451953888,0.14754098653793335,0.18579235672950745,0.19672131538391116,0.0,0.0,0.0,0.0,0.0,0.0,0.0,0.0,0.0,0.0,0.0,0.0,0.0,0.0,0.0,0.0,0.0,0.0,0.0,0.0,0.0,0.0,0.0,0.0,0.0,0.0,0.0,0.0,0.0,0.0,0.0,0.0,0.0,0.0,0.0,0.0,0.0
2025-07-08 12:29:57,417 - INFO - Ligne 19: danger_level=30.280553817749023, catégorie=30.0-39.0
2025-07-08 12:29:57,418 - INFO -   -> Créé categorize/30.0-39.0/line_0019.csv
2025-07-08 12:29:57,423 - INFO - Traitement de la ligne 20: 0.9356617927551267,0.7922794222831726,0.5128676295280457,0.2261029481887817,0.040441177785396576,0.02757352963089943,0.06433823704719543,0.08639705926179884,0.09742647409439088,0.09375,0.08455882221460342,0.09191176295280457,0.09191176295280457,0.082720585167408,0.08088235557079315,0.08639705926179884,0.09375,0.08455882221460342,0.07536764442920685,0.07536764442920685,0.07720588147640227,0.0680147036910057,0.056985292583704,0.060661762952804565,0.060661762952804565,0.049632351845502846,0.040441177785396576,0.033088237047195435,0.040441177785396576,0.023897059261798855,0.012867647223174572,0.016544118523597717,0.025735294446349144,0.023897059261798855,0.02757352963089943,0.040441177785396576,0.053308822214603424,0.06433823704719543,0.07536764442920685,0.09742647409439088,0.11397058516740798,0.12683823704719543,0.1360294073820114,0.15073528885841367,0.15992647409439087,0.15808823704719543,0.1452205926179886,0.13786764442920685,0.1323529481887817,0.12316176295280457,0.10110294073820114,0.09191176295280457,0.09191176295280457,0.08455882221460342,0.07352941483259201,0.07720588147640227,0.07904411852359772,0.07904411852359772,0.07904411852359772,0.082720585167408,0.0882352963089943,0.08639705926179884,0.09007352590560912,0.09742647409439088,0.10294117778539656,0.09558823704719543,0.09558823704719543,0.10294117778539656,0.10661764442920683,0.10661764442920683,0.10661764442920683,0.11397058516740798,0.11397058516740798,0.10661764442920683,0.104779414832592,0.11397058516740798,0.11029411852359772,0.11029411852359772,0.10845588147640228,0.11397058516740798,0.12132352590560912,0.11397058516740798,0.11213235557079317,0.11580882221460342,0.11764705926179884,0.11580882221460342,0.10661764442920683,0.11029411852359772,0.11948529630899428,0.11213235557079317,0.11029411852359772,0.11580882221460342,0.12316176295280457,0.12316176295280457,0.12132352590560912,0.11580882221460342,0.12316176295280457,0.11948529630899428,0.11764705926179884,0.11213235557079317,0.12132352590560912,0.12132352590560912,0.11948529630899428,0.12316176295280457,0.12683823704719543,0.12316176295280457,0.11397058516740798,0.12132352590560912,0.12867647409439087,0.12132352590560912,0.125,0.1323529481887817,0.13419117033481595,0.13419117033481595,0.14154411852359772,0.15073528885841367,0.14889705181121826,0.14338235557079315,0.12867647409439087,0.13419117033481595,0.15073528885841367,0.15992647409439087,0.14338235557079315,0.12867647409439087,0.12316176295280457,0.11948529630899428,0.11397058516740798,0.11580882221460342,0.11213235557079317,0.11029411852359772,0.18014705181121823,0.26838234066963196,0.26654410362243647,0.125,0.23161764442920685,0.5643382072448729,0.8602941036224365,1.0,0.9448529481887816,0.7297794222831726,0.4613970518112183,0.209558829665184,0.029411764815449715,0.0,0.040441177785396576,0.0680147036910057,0.07169117778539658,0.07169117778539658,0.07536764442920685,0.07169117778539658,0.0680147036910057,0.0625,0.07536764442920685,0.06985294073820114,0.06617647409439087,0.06617647409439087,0.0680147036910057,0.060661762952804565,0.05514705926179886,0.053308822214603424,0.05514705926179886,0.038602940738201134,0.033088237047195435,0.03125,0.029411764815449715,0.0,0.0,0.0,0.0,0.0,0.0,0.0,0.0,0.0,0.0,0.0,0.0,0.0,0.0,0.0,0.0,0.0,0.0,0.0,0.0,0.0,0.0,0.0
2025-07-08 12:29:58,150 - INFO - Ligne 20: danger_level=80.1109848022461, catégorie=80.0-89.0
2025-07-08 12:29:58,151 - INFO -   -> Créé categorize/80.0-89.0/line_0020.csv
2025-07-08 12:29:58,155 - INFO - Traitement de la ligne 21: 0.9918699264526368,0.8764227628707885,0.3495934903621673,0.0,0.12520325183868408,0.22926829755306244,0.25853657722473145,0.29593494534492487,0.29430893063545227,0.28617885708808893,0.28780487179756165,0.2991870045661926,0.29430893063545227,0.2991870045661926,0.29593494534492487,0.30569106340408325,0.30569106340408325,0.29756098985672,0.30243903398513794,0.3073170781135559,0.3008130192756653,0.29756098985672,0.3008130192756653,0.30569106340408325,0.3154471516609192,0.3073170781135559,0.30894309282302856,0.32032519578933716,0.3252032399177551,0.3252032399177551,0.33658537268638605,0.35772356390953064,0.3723577260971069,0.37560975551605214,0.3869918584823608,0.411382108926773,0.42113819718360895,0.42276424169540405,0.4439024329185486,0.45365855097770685,0.4585365951061249,0.44715446233749384,0.437398374080658,0.42601627111434937,0.40325203537940973,0.38211381435394287,0.36422765254974365,0.3479674756526947,0.34471544623374933,0.33170732855796814,0.3252032399177551,0.33495935797691345,0.3268292546272278,0.3186991810798645,0.31707316637039185,0.3186991810798645,0.3219512104988098,0.30894309282302856,0.3073170781135559,0.3219512104988098,0.3186991810798645,0.3154471516609192,0.3219512104988098,0.32032519578933716,0.3252032399177551,0.3219512104988098,0.32357722520828247,0.3268292546272278,0.33495935797691345,0.32032519578933716,0.32357722520828247,0.3333333432674408,0.3268292546272278,0.3121951222419739,0.3186991810798645,0.3268292546272278,0.3186991810798645,0.31382113695144653,0.31382113695144653,0.31707316637039185,0.3105691075325012,0.30243903398513794,0.30406504869461054,0.3154471516609192,0.3121951222419739,0.30406504869461054,0.30569106340408325,0.3121951222419739,0.3121951222419739,0.30569106340408325,0.3073170781135559,0.3154471516609192,0.31707316637039185,0.30569106340408325,0.3186991810798645,0.34308943152427673,0.3479674756526947,0.3398374021053314,0.356097549200058,0.3593495786190033,0.35121950507164,0.33658537268638605,0.3414634168148041,0.34308943152427673,0.32032519578933716,0.2926829159259796,0.2926829159259796,0.29430893063545227,0.28780487179756165,0.2796747982501984,0.28780487179756165,0.29593494534492487,0.28617885708808893,0.2829268276691437,0.28617885708808893,0.29430893063545227,0.29593494534492487,0.29430893063545227,0.29430893063545227,0.3186991810798645,0.33170732855796814,0.3772357702255249,0.5707316994667053,0.8243902325630189,1.0,0.7414634227752684,0.20975609123706815,0.035772357136011124,0.20813007652759552,0.26178860664367676,0.27642276883125305,0.30569106340408325,0.3121951222419739,0.29593494534492487,0.29756098985672,0.31382113695144653,0.3121951222419739,0.30894309282302856,0.3105691075325012,0.3121951222419739,0.3186991810798645,0.30243903398513794,0.3105691075325012,0.3186991810798645,0.32032519578933716,0.30894309282302856,0.3073170781135559,0.3219512104988098,0.0,0.0,0.0,0.0,0.0,0.0,0.0,0.0,0.0,0.0,0.0,0.0,0.0,0.0,0.0,0.0,0.0,0.0,0.0,0.0,0.0,0.0,0.0,0.0,0.0,0.0,0.0,0.0,0.0,0.0,0.0,0.0,0.0,0.0,0.0,0.0,0.0,0.0,0.0,0.0
2025-07-08 12:29:58,863 - INFO - Ligne 21: danger_level=30.04829978942871, catégorie=30.0-39.0
2025-07-08 12:29:58,864 - INFO -   -> Créé categorize/30.0-39.0/line_0021.csv
2025-07-08 12:29:58,869 - INFO - Traitement de la ligne 22: 0.9597122073173523,0.7553957104682921,0.37122303247451777,0.09064748138189316,0.03597122430801392,0.132374107837677,0.17841726541519165,0.16546761989593503,0.14820143580436707,0.15683452785015106,0.15683452785015106,0.13525180518627167,0.13812950253486633,0.1424460411071777,0.1453237384557724,0.15251798927783966,0.15971222519874573,0.18705035746097565,0.19424460828304288,0.2057553976774216,0.23453237116336825,0.2604316473007202,0.29208633303642273,0.32230216264724726,0.34100720286369324,0.37266185879707336,0.4028776884078979,0.4258992671966553,0.44028776884078974,0.448920875787735,0.4604316651821136,0.4561150968074799,0.43165466189384466,0.4244604408740997,0.4100719392299652,0.38705036044120794,0.36402878165245056,0.34100720286369324,0.3266187012195587,0.3079136610031128,0.28057554364204407,0.2733812928199768,0.2690647542476654,0.25755396485328674,0.25755396485328674,0.2633093595504761,0.2633093595504761,0.28057554364204407,0.29640287160873413,0.32230216264724726,0.34676259756088257,0.34532374143600464,0.33237409591674805,0.2906474769115448,0.2460431605577469,0.2302158325910568,0.2230215817689896,0.2230215817689896,0.2302158325910568,0.2230215817689896,0.21870504319667816,0.23165467381477356,0.21870504319667816,0.20143884420394895,0.2388489246368408,0.4460431635379791,0.7971222996711731,1.0,0.7755395770072938,0.40431654453277593,0.09352517873048782,0.0,0.10935252159833908,0.1424460411071777,0.12230215966701508,0.1107913702726364,0.09928057342767715,0.1064748167991638,0.09928057342767715,0.09208633005619048,0.0,0.0,0.0,0.0,0.0,0.0,0.0,0.0,0.0,0.0,0.0,0.0,0.0,0.0,0.0,0.0,0.0,0.0,0.0,0.0,0.0,0.0,0.0,0.0,0.0,0.0,0.0,0.0,0.0,0.0,0.0,0.0,0.0,0.0,0.0,0.0,0.0,0.0,0.0,0.0,0.0,0.0,0.0,0.0,0.0,0.0,0.0,0.0,0.0,0.0,0.0,0.0,0.0,0.0,0.0,0.0,0.0,0.0,0.0,0.0,0.0,0.0,0.0,0.0,0.0,0.0,0.0,0.0,0.0,0.0,0.0,0.0,0.0,0.0,0.0,0.0,0.0,0.0,0.0,0.0,0.0,0.0,0.0,0.0,0.0,0.0,0.0,0.0,0.0,0.0,0.0,0.0,0.0,0.0,0.0,0.0,0.0,0.0,0.0,0.0,0.0,0.0,0.0,0.0,0.0,0.0,0.0,0.0
2025-07-08 12:29:59,569 - INFO - Ligne 22: danger_level=51.5760383605957, catégorie=50.0-59.0
2025-07-08 12:29:59,570 - INFO -   -> Créé categorize/50.0-59.0/line_0022.csv
2025-07-08 12:29:59,574 - INFO - Traitement de la ligne 23: 1.0,0.8924731016159058,0.342293918132782,0.0,0.1505376398563385,0.256272405385971,0.26523298025131226,0.28315412998199463,0.2795698940753937,0.2813619971275329,0.28315412998199463,0.28315412998199463,0.2795698940753937,0.2867383658885956,0.2867383658885956,0.2813619971275329,0.2759856581687927,0.29032257199287415,0.29032257199287415,0.28315412998199463,0.28315412998199463,0.2939068078994751,0.29749104380607605,0.28853046894073486,0.2867383658885956,0.30645161867141724,0.31003585457801813,0.30824372172355646,0.31182795763015747,0.32974910736083984,0.33870968222618103,0.34587812423706055,0.35304659605026245,0.3745519816875458,0.3942652344703674,0.39964157342910767,0.4103942513465881,0.43189963698387146,0.4372759759426117,0.44265231490135193,0.44086021184921265,0.43906810879707336,0.42293906211853033,0.3942652344703674,0.3691756129264832,0.3566308319568634,0.34587812423706055,0.3189964294433594,0.31003585457801813,0.3172042965888977,0.31362006068229675,0.29928314685821533,0.301075279712677,0.3028673827648163,0.30645161867141724,0.2939068078994751,0.2956989109516144,0.301075279712677,0.30824372172355646,0.29928314685821533,0.29928314685821533,0.31003585457801813,0.30645161867141724,0.29928314685821533,0.301075279712677,0.31003585457801813,0.31182795763015747,0.3028673827648163,0.28853046894073486,0.301075279712677,0.3028673827648163,0.2939068078994751,0.28853046894073486,0.2921147048473358,0.29928314685821533,0.2939068078994751,0.28853046894073486,0.29749104380607605,0.2921147048473358,0.28853046894073486,0.2813619971275329,0.2849462330341339,0.29032257199287415,0.2795698940753937,0.2706093192100525,0.2777777910232544,0.28315412998199463,0.2777777910232544,0.27419355511665344,0.2759856581687927,0.2813619971275329,0.2724014222621918,0.2759856581687927,0.28315412998199463,0.28315412998199463,0.2759856581687927,0.2706093192100525,0.2759856581687927,0.2849462330341339,0.2724014222621918,0.2706093192100525,0.28315412998199463,0.2849462330341339,0.2759856581687927,0.2706093192100525,0.2813619971275329,0.28853046894073486,0.2724014222621918,0.2759856581687927,0.2759856581687927,0.2849462330341339,0.2795698940753937,0.2759856581687927,0.2921147048473358,0.3172042965888977,0.31182795763015747,0.3189964294433594,0.33870968222618103,0.34408602118492126,0.3243727684020996,0.3154121935367584,0.32258063554763794,0.30824372172355646,0.28315412998199463,0.26702508330345154,0.259856641292572,0.26523298025131226,0.25448027253150934,0.256272405385971,0.2634408473968506,0.26523298025131226,0.256272405385971,0.25268816947937006,0.26702508330345154,0.2688172161579132,0.259856641292572,0.26702508330345154,0.28315412998199463,0.29749104380607605,0.3315412104129791,0.519713282585144,0.774193525314331,0.9928315281867982,0.774193525314331,0.231182798743248,0.010752688162028788,0.17921146750450134,0.23655913770198825,0.2293906807899475,0.27419355511665344,0.2867383658885956,0.2706093192100525,0.26523298025131226,0.2777777910232544,0.2777777910232544,0.2724014222621918,0.2706093192100525,0.2813619971275329,0.28315412998199463,0.2813619971275329,0.2777777910232544,0.2867383658885956,0.28853046894073486,0.2777777910232544,0.2777777910232544,0.2849462330341339,0.29032257199287415,0.29032257199287415,0.2939068078994751,0.3046594858169556,0.0,0.0,0.0,0.0,0.0,0.0,0.0,0.0,0.0,0.0,0.0,0.0,0.0,0.0,0.0,0.0,0.0,0.0
2025-07-08 12:30:00,379 - INFO - Ligne 23: danger_level=85.03721618652344, catégorie=80.0-89.0
2025-07-08 12:30:00,379 - INFO -   -> Créé categorize/80.0-89.0/line_0023.csv
2025-07-08 12:30:00,385 - INFO - Traitement de la ligne 24: 0.9779116511344909,0.7911646366119384,0.0200803205370903,0.022088352590799328,0.00200803205370903,0.0301204826682806,0.0803212821483612,0.10441767424345016,0.10240963846445084,0.114457830786705,0.11044176667928696,0.1204819306731224,0.12248995900154112,0.1325301229953766,0.1204819306731224,0.14457830786705017,0.13453815877437592,0.14257028698921204,0.13855421543121335,0.14859437942504883,0.14658634364604947,0.1666666716337204,0.16265060007572174,0.17670682072639465,0.17469879984855652,0.19076305627822876,0.19477911293506625,0.21485944092273712,0.21887549757957456,0.24899598956108093,0.25100401043891907,0.2871485948562622,0.29919677972793574,0.33534136414527893,0.357429713010788,0.3895582258701325,0.41164657473564154,0.4457831382751465,0.4658634662628174,0.4939759075641632,0.5100401639938353,0.5240963697433472,0.5220883488655089,0.5020080208778381,0.443775087594986,0.38554215431213373,0.30321285128593445,0.24899598956108093,0.18273092806339264,0.14658634364604947,0.114457830786705,0.09638553857803343,0.07429718971252441,0.06827308982610703,0.05220883712172508,0.056224901229143136,0.04618473723530769,0.050200805068016045,0.04618473723530769,0.058232933282852166,0.038152609020471566,0.05421686917543411,0.050200805068016045,0.0602409653365612,0.05220883712172508,0.06425702571868896,0.0602409653365612,0.07028112560510635,0.0602409653365612,0.06827308982610703,0.058232933282852166,0.06827308982610703,0.056224901229143136,0.0602409653365612,0.05220883712172508,0.06224899739027023,0.04819276928901672,0.06224899739027023,0.04618473723530769,0.058232933282852166,0.04618473723530769,0.056224901229143136,0.04618473723530769,0.05220883712172508,0.04216867312788963,0.05421686917543411,0.0401606410741806,0.05220883712172508,0.050200805068016045,0.05421686917543411,0.04819276928901672,0.058232933282852166,0.04819276928901672,0.0602409653365612,0.050200805068016045,0.058232933282852166,0.05421686917543411,0.0602409653365612,0.0662650614976883,0.0863453820347786,0.08433734625577927,0.09036144614219664,0.09437751024961472,0.09638553857803343,0.08232931792736053,0.08232931792736053,0.058232933282852166,0.06827308982610703,0.058232933282852166,0.06425702571868896,0.0662650614976883,0.07831325381994246,0.07028112560510635,0.08835341036319731,0.0662650614976883,0.038152609020471566,0.07630521804094313,0.5140562057495117,1.0,0.8493975996971129,0.07831325381994246,0.014056225307285784,0.0,0.04618473723530769,0.09236947447061537,0.10843373835086823,0.10240963846445084,0.11244980245828629,0.10441767424345016,0.114457830786705,0.11646586656570435,0.12449799478054047,0.12248995900154112,0.13453815877437592,0.12449799478054047,0.13855421543121335,0.13453815877437592,0.15060241520404816,0.14859437942504883,0.15863454341888428,0.15863454341888428,0.17469879984855652,0.17670682072639465,0.19477911293506625,0.0,0.0,0.0,0.0,0.0,0.0,0.0,0.0,0.0,0.0,0.0,0.0,0.0,0.0,0.0,0.0,0.0,0.0,0.0,0.0,0.0,0.0,0.0,0.0,0.0,0.0,0.0,0.0,0.0,0.0,0.0,0.0,0.0,0.0,0.0,0.0,0.0,0.0,0.0,0.0,0.0,0.0,0.0,0.0
2025-07-08 12:30:00,403 - ERROR - Erreur API pour ligne 24: 500
2025-07-08 12:30:00,404 - ERROR -   -> {"error":"The number of derivatives at boundaries does not match: expected 1, got 0+0"}
2025-07-08 12:30:00,412 - INFO - Traitement de la ligne 25: 0.9397363662719727,0.994350254535675,0.5028248429298401,0.050847455859184265,0.03201506659388542,0.09039548039436339,0.08851224184036256,0.07721280306577681,0.07909604161977768,0.07721280306577681,0.06779661029577255,0.0659133717417717,0.0659133717417717,0.05838041380047798,0.050847455859184265,0.04896421730518341,0.05273069813847542,0.04143126308917999,0.03201506659388542,0.02636534906923771,0.03201506659388542,0.028248587623238564,0.011299435049295424,0.0075329565443098545,0.011299435049295424,0.001883239136077464,0.0,0.0,0.015065913088619707,0.030131826177239415,0.03578154370188713,0.05838041380047798,0.09039548039436339,0.10357815772294998,0.11299435049295424,0.12241054326295853,0.14500941336154935,0.1393596976995468,0.1393596976995468,0.14124293625354767,0.1393596976995468,0.14500941336154935,0.13747645914554596,0.1280602663755417,0.13370998203754425,0.13370998203754425,0.12994350492954254,0.12617702782154083,0.1280602663755417,0.12429378181695938,0.1111111119389534,0.10546139627695084,0.1148775890469551,0.1111111119389534,0.10169491171836852,0.10169491171836852,0.1111111119389534,0.11299435049295424,0.1111111119389534,0.12241054326295853,0.13747645914554596,0.14312617480754852,0.14312617480754852,0.15065912902355194,0.17702448368072507,0.18644067645072937,0.18644067645072937,0.1845574378967285,0.1807909607887268,0.16384181380271912,0.14312617480754852,0.1318267434835434,0.12429378181695938,0.12241054326295853,0.12052730470895769,0.12052730470895769,0.12429378181695938,0.13370998203754425,0.1355932205915451,0.1525423675775528,0.21092279255390167,0.3201506733894348,0.5065913200378418,0.7401130199432373,0.9453860521316528,1.0,0.4896421730518341,0.03766478225588799,0.03954802080988884,0.09604519605636595,0.08286252617835999,0.06967984884977341,0.07156308740377426,0.06967984884977341,0.06026365235447884,0.05461393669247627,0.06214689090847969,0.06026365235447884,0.05273069813847542,0.04143126308917999,0.0,0.0,0.0,0.0,0.0,0.0,0.0,0.0,0.0,0.0,0.0,0.0,0.0,0.0,0.0,0.0,0.0,0.0,0.0,0.0,0.0,0.0,0.0,0.0,0.0,0.0,0.0,0.0,0.0,0.0,0.0,0.0,0.0,0.0,0.0,0.0,0.0,0.0,0.0,0.0,0.0,0.0,0.0,0.0,0.0,0.0,0.0,0.0,0.0,0.0,0.0,0.0,0.0,0.0,0.0,0.0,0.0,0.0,0.0,0.0,0.0,0.0,0.0,0.0,0.0,0.0,0.0,0.0,0.0,0.0,0.0,0.0,0.0,0.0,0.0,0.0,0.0,0.0,0.0,0.0,0.0,0.0,0.0,0.0,0.0,0.0,0.0,0.0
2025-07-08 12:30:01,293 - INFO - Ligne 25: danger_level=81.07936096191406, catégorie=80.0-89.0
2025-07-08 12:30:01,293 - INFO -   -> Créé categorize/80.0-89.0/line_0025.csv
2025-07-08 12:30:01,298 - INFO - Traitement de la ligne 26: 0.7917525768280029,0.5257731676101685,0.22886598110198972,0.1608247458934784,0.15257732570171356,0.15257732570171356,0.1319587677717209,0.1381443291902542,0.12577319145202637,0.14020618796348572,0.1340206116437912,0.15051546692848203,0.14020618796348572,0.15051546692848203,0.1381443291902542,0.1608247458934784,0.15670102834701538,0.1649484485387802,0.17319588363170624,0.18144330382347104,0.18350514769554135,0.21030928194522855,0.2144329845905304,0.23505154252052307,0.2453608214855194,0.2659793794155121,0.2659793794155121,0.2927834987640381,0.2948453724384308,0.3195876181125641,0.3134020566940308,0.3134020566940308,0.2824742197990417,0.27835050225257874,0.23917526006698608,0.23092783987522125,0.18969072401523593,0.17938144505023956,0.15257732570171356,0.16288660466670987,0.14639174938201904,0.15670102834701538,0.1360824704170227,0.14639174938201904,0.1381443291902542,0.15257732570171356,0.1360824704170227,0.14639174938201904,0.12989690899848935,0.14020618796348572,0.1340206116437912,0.15257732570171356,0.15670102834701538,0.17525772750377655,0.18144330382347104,0.20412370562553403,0.19793814420700076,0.1958762854337692,0.17319588363170624,0.15051546692848203,0.1319587677717209,0.17319588363170624,0.23711340129375455,0.3237113356590271,0.4164948463439941,0.5360824465751648,0.6350515484809875,0.7216494679450989,0.8350515365600587,0.9216494560241699,1.0,0.9134020805358887,0.4556700885295868,0.1958762854337692,0.09484536200761795,0.06391752511262894,0.022680412977933884,0.014432989992201328,0.0,0.0,0.0,0.0,0.0,0.0,0.0,0.0,0.0,0.0,0.0,0.0,0.0,0.0,0.0,0.0,0.0,0.0,0.0,0.0,0.0,0.0,0.0,0.0,0.0,0.0,0.0,0.0,0.0,0.0,0.0,0.0,0.0,0.0,0.0,0.0,0.0,0.0,0.0,0.0,0.0,0.0,0.0,0.0,0.0,0.0,0.0,0.0,0.0,0.0,0.0,0.0,0.0,0.0,0.0,0.0,0.0,0.0,0.0,0.0,0.0,0.0,0.0,0.0,0.0,0.0,0.0,0.0,0.0,0.0,0.0,0.0,0.0,0.0,0.0,0.0,0.0,0.0,0.0,0.0,0.0,0.0,0.0,0.0,0.0,0.0,0.0,0.0,0.0,0.0,0.0,0.0,0.0,0.0,0.0,0.0,0.0,0.0,0.0,0.0,0.0,0.0,0.0,0.0,0.0,0.0,0.0,0.0,0.0,0.0
2025-07-08 12:30:01,859 - INFO - Ligne 26: danger_level=36.71781539916992, catégorie=30.0-39.0
2025-07-08 12:30:01,860 - INFO -   -> Créé categorize/30.0-39.0/line_0026.csv
2025-07-08 12:30:01,864 - INFO - Traitement de la ligne 27: 1.0,0.9037940502166749,0.4037940502166748,0.03387533873319626,0.18428184092044833,0.2018970251083374,0.1463414579629898,0.13821138441562653,0.13821138441562653,0.1314363181591034,0.13685636222362518,0.13685636222362518,0.13685636222362518,0.14769648015499115,0.15040650963783264,0.15582655370235443,0.1612466126680374,0.1720867156982422,0.18428184092044833,0.18834687769412997,0.19105690717697144,0.2073170691728592,0.21815718710422516,0.2249322533607483,0.23577235639095304,0.2547425329685211,0.27506774663925165,0.2777777910232544,0.2804878056049347,0.30216801166534424,0.3157181441783905,0.31165310740470886,0.31436315178871155,0.3211382031440735,0.31707316637039185,0.29674795269966125,0.2723577320575714,0.25609755516052246,0.23577235639095304,0.21002709865570068,0.20054200291633603,0.2018970251083374,0.20054200291633603,0.19105690717697144,0.18699187040328977,0.1964769661426544,0.1897018998861313,0.18292683362960813,0.17750677466392517,0.18292683362960813,0.18428184092044833,0.1720867156982422,0.17073170840740204,0.16802167892456055,0.16802167892456055,0.16260161995887756,0.15582655370235443,0.15582655370235443,0.15582655370235443,0.1463414579629898,0.14227642118930817,0.1436314433813095,0.14769648015499115,0.13685636222362518,0.13685636222362518,0.13685636222362518,0.14227642118930817,0.140921413898468,0.1517615169286728,0.16531164944171903,0.1693767011165619,0.16531164944171903,0.17886178195476532,0.1924119293689728,0.18563686311244965,0.17615176737308502,0.1693767011165619,0.15853658318519592,0.1436314433813095,0.1260162591934204,0.12466124445199966,0.13685636222362518,0.14227642118930817,0.13821138441562653,0.13008129596710205,0.14227642118930817,0.2344173491001129,0.4728997349739074,0.7764227390289306,0.9579945802688599,0.7289972901344299,0.2086720913648605,0.0,0.17615176737308502,0.19376693665981287,0.14498645067214963,0.14227642118930817,0.15447154641151428,0.15989160537719727,0.15582655370235443,0.1531165242195129,0.1666666716337204,0.17886178195476532,0.17750677466392517,0.17750677466392517,0.18834687769412997,0.2018970251083374,0.0,0.0,0.0,0.0,0.0,0.0,0.0,0.0,0.0,0.0,0.0,0.0,0.0,0.0,0.0,0.0,0.0,0.0,0.0,0.0,0.0,0.0,0.0,0.0,0.0,0.0,0.0,0.0,0.0,0.0,0.0,0.0,0.0,0.0,0.0,0.0,0.0,0.0,0.0,0.0,0.0,0.0,0.0,0.0,0.0,0.0,0.0,0.0,0.0,0.0,0.0,0.0,0.0,0.0,0.0,0.0,0.0,0.0,0.0,0.0,0.0,0.0,0.0,0.0,0.0,0.0,0.0,0.0,0.0,0.0,0.0,0.0,0.0,0.0,0.0,0.0,0.0,0.0,0.0,0.0,0.0
2025-07-08 12:30:02,678 - INFO - Ligne 27: danger_level=84.32801818847656, catégorie=80.0-89.0
2025-07-08 12:30:02,678 - INFO -   -> Créé categorize/80.0-89.0/line_0027.csv
2025-07-08 12:30:02,682 - INFO - Traitement de la ligne 28: 0.9919028282165528,0.7854251265525818,0.5425100922584534,0.2591093182563782,0.028340080752968788,0.0,0.02429149858653545,0.02429149858653545,0.012145749293267725,0.06072874367237091,0.05263157933950424,0.06072874367237091,0.07287449389696121,0.07692307978868483,0.056680161505937576,0.08097165822982787,0.08906882256269456,0.08906882256269456,0.0850202441215515,0.1295546591281891,0.1295546591281891,0.16194331645965576,0.14979757368564603,0.1862348169088364,0.2145749032497406,0.2591093182563782,0.24696356058120728,0.3076923191547394,0.3319838047027588,0.3765182197093964,0.37246963381767273,0.40485829114913935,0.3927125632762909,0.4331983923912048,0.3846153914928436,0.34008097648620605,0.27935221791267395,0.27935221791267395,0.20242914557456967,0.16194331645965576,0.1538461595773697,0.15789473056793213,0.1295546591281891,0.14574898779392242,0.1295546591281891,0.1538461595773697,0.13360324501991272,0.15789473056793213,0.13765181601047516,0.19028340280056,0.1417004019021988,0.1295546591281891,0.13360324501991272,0.16194331645965576,0.1538461595773697,0.17408907413482666,0.14574898779392242,0.12550607323646543,0.11740890890359879,0.14979757368564603,0.11740890890359879,0.1659919023513794,0.1417004019021988,0.1538461595773697,0.13765181601047516,0.1417004019021988,0.13360324501991272,0.1538461595773697,0.1295546591281891,0.1417004019021988,0.13765181601047516,0.1417004019021988,0.13360324501991272,0.17004048824310303,0.1417004019021988,0.19028340280056,0.17813764512538907,0.2145749032497406,0.21862348914146423,0.2753036320209503,0.2348178178071976,0.21862348914146423,0.2064777314662933,0.21862348914146423,0.19433198869228363,0.19433198869228363,0.17004048824310303,0.19433198869228363,0.18218623101711276,0.17813764512538907,0.13360324501991272,0.1659919023513794,0.15789473056793213,0.19838055968284607,0.1538461595773697,0.11740890890359879,0.1417004019021988,0.17004048824310303,0.1538461595773697,0.16194331645965576,0.1659919023513794,0.19433198869228363,0.18218623101711276,0.24696356058120728,0.29959514737129206,0.46153846383094793,0.5303643941879272,0.4696356356143952,0.37246963381767273,0.6558704376220703,0.9392712712287904,1.0,0.7449392676353455,0.5182186365127563,0.18218623101711276,0.06072874367237091,0.028340080752968788,0.11740890890359879,0.1538461595773697,0.19433198869228363,0.17408907413482666,0.19838055968284607,0.19433198869228363,0.22672064602375033,0.2145749032497406,0.2348178178071976,0.21862348914146423,0.2591093182563782,0.25101214647293085,0.2955465614795685,0.2874493896961212,0.3319838047027588,0.3319838047027588,0.0,0.0,0.0,0.0,0.0,0.0,0.0,0.0,0.0,0.0,0.0,0.0,0.0,0.0,0.0,0.0,0.0,0.0,0.0,0.0,0.0,0.0,0.0,0.0,0.0,0.0,0.0,0.0,0.0,0.0,0.0,0.0,0.0,0.0,0.0,0.0,0.0,0.0,0.0,0.0,0.0,0.0,0.0,0.0,0.0,0.0,0.0,0.0,0.0,0.0,0.0,0.0,0.0,0.0,0.0
2025-07-08 12:30:03,455 - INFO - Ligne 28: danger_level=38.47547912597656, catégorie=30.0-39.0
2025-07-08 12:30:03,455 - INFO -   -> Créé categorize/30.0-39.0/line_0028.csv
2025-07-08 12:30:03,459 - INFO - Traitement de la ligne 29: 0.9738675951957703,1.0,0.44773519039154047,0.0,0.17073170840740204,0.3414634168148041,0.3362369239330292,0.3031359016895294,0.31358885765075684,0.32055750489234924,0.30836236476898193,0.31358885765075684,0.32055750489234924,0.32404181361198425,0.32229965925216675,0.31533101201057434,0.32229965925216675,0.33101046085357666,0.32229965925216675,0.31184670329093933,0.3257839679718017,0.33101046085357666,0.32404181361198425,0.32404181361198425,0.33275261521339417,0.32926830649375916,0.32752612233161926,0.32926830649375916,0.3414634168148041,0.3484320640563965,0.346689909696579,0.3449477255344391,0.3571428656578064,0.36236932873725886,0.36062717437744146,0.36933797597885126,0.3815330862998962,0.3867595791816712,0.39024388790130615,0.3937282264232635,0.40418118238449097,0.407665491104126,0.400696873664856,0.3832752704620361,0.36933797597885126,0.3519163727760315,0.32055750489234924,0.31010451912879944,0.30487805604934687,0.296167254447937,0.2874564528465271,0.28222995996475214,0.26829269528388977,0.2404181212186813,0.23170731961727145,0.25609755516052246,0.2944251000881195,0.2926829159259796,0.25087109208106995,0.24912892282009125,0.2926829159259796,0.30836236476898193,0.2891986072063446,0.2944251000881195,0.30836236476898193,0.32926830649375916,0.33449476957321167,0.32752612233161926,0.0,0.0,0.0,0.0,0.0,0.0,0.0,0.0,0.0,0.0,0.0,0.0,0.0,0.0,0.0,0.0,0.0,0.0,0.0,0.0,0.0,0.0,0.0,0.0,0.0,0.0,0.0,0.0,0.0,0.0,0.0,0.0,0.0,0.0,0.0,0.0,0.0,0.0,0.0,0.0,0.0,0.0,0.0,0.0,0.0,0.0,0.0,0.0,0.0,0.0,0.0,0.0,0.0,0.0,0.0,0.0,0.0,0.0,0.0,0.0,0.0,0.0,0.0,0.0,0.0,0.0,0.0,0.0,0.0,0.0,0.0,0.0,0.0,0.0,0.0,0.0,0.0,0.0,0.0,0.0,0.0,0.0,0.0,0.0,0.0,0.0,0.0,0.0,0.0,0.0,0.0,0.0,0.0,0.0,0.0,0.0,0.0,0.0,0.0,0.0,0.0,0.0,0.0,0.0,0.0,0.0,0.0,0.0,0.0,0.0,0.0,0.0,0.0,0.0,0.0,0.0,0.0,0.0,0.0,0.0
2025-07-08 12:30:03,477 - ERROR - Erreur API pour ligne 29: 500
2025-07-08 12:30:03,477 - ERROR -   -> {"error":"The number of derivatives at boundaries does not match: expected 1, got 0+0"}
2025-07-08 12:30:03,483 - INFO - Traitement de la ligne 30: 0.9777777791023254,0.7096296548843384,0.3837037086486816,0.1022222191095352,0.0,0.10518518835306168,0.14814814925193787,0.12740740180015564,0.12296296656131744,0.12444444745779036,0.11259259283542632,0.10814815014600752,0.1155555546283722,0.12148147821426392,0.11703703552484512,0.12888889014720917,0.145185187458992,0.16148148477077484,0.18222221732139587,0.19111111760139465,0.22814814746379847,0.26814815402030945,0.2888889014720917,0.31703704595565796,0.351111114025116,0.3792592585086823,0.4103703796863556,0.4296296238899231,0.45629629492759693,0.4681481420993805,0.4622222185134888,0.4592592716217041,0.4533333480358124,0.43999999761581426,0.41333332657814026,0.385185182094574,0.3762962818145752,0.351111114025116,0.31703704595565796,0.29777777194976807,0.2814814746379852,0.2755555510520935,0.27259260416030884,0.2666666805744171,0.27259260416030884,0.290370374917984,0.31703704595565796,0.3437037169933319,0.351111114025116,0.36888888478279114,0.3570370376110077,0.30222222208976746,0.27111110091209406,0.2503703832626343,0.24148148298263547,0.24444444477558133,0.24444444477558133,0.25333333015441895,0.24444444477558133,0.23851852118968964,0.24296295642852783,0.26222223043441767,0.45037037134170527,0.7777777910232544,1.0,0.7896296381950377,0.3911111056804657,0.1066666692495346,0.059259258210659034,0.16148148477077484,0.1940740793943405,0.15851852297782895,0.15555556118488312,0.16888888180255887,0.15555556118488312,0.1496296226978302,0.1540740728378296,0.0,0.0,0.0,0.0,0.0,0.0,0.0,0.0,0.0,0.0,0.0,0.0,0.0,0.0,0.0,0.0,0.0,0.0,0.0,0.0,0.0,0.0,0.0,0.0,0.0,0.0,0.0,0.0,0.0,0.0,0.0,0.0,0.0,0.0,0.0,0.0,0.0,0.0,0.0,0.0,0.0,0.0,0.0,0.0,0.0,0.0,0.0,0.0,0.0,0.0,0.0,0.0,0.0,0.0,0.0,0.0,0.0,0.0,0.0,0.0,0.0,0.0,0.0,0.0,0.0,0.0,0.0,0.0,0.0,0.0,0.0,0.0,0.0,0.0,0.0,0.0,0.0,0.0,0.0,0.0,0.0,0.0,0.0,0.0,0.0,0.0,0.0,0.0,0.0,0.0,0.0,0.0,0.0,0.0,0.0,0.0,0.0,0.0,0.0,0.0,0.0,0.0,0.0,0.0,0.0,0.0,0.0,0.0,0.0,0.0,0.0
2025-07-08 12:30:04,205 - INFO - Ligne 30: danger_level=38.28882598876953, catégorie=30.0-39.0
2025-07-08 12:30:04,205 - INFO -   -> Créé categorize/30.0-39.0/line_0030.csv
2025-07-08 12:30:04,209 - INFO - Traitement de la ligne 31: 1.0,0.8235294222831726,0.5742297172546387,0.4005602300167084,0.2380952388048172,0.14005602896213531,0.04761904850602149,0.025210084393620488,0.011204482056200504,0.03641456738114357,0.01960784383118153,0.04201680794358253,0.04481792822480202,0.050420168787240975,0.03641456738114357,0.050420168787240975,0.03641456738114357,0.04481792822480202,0.025210084393620488,0.03641456738114357,0.039215687662363045,0.04201680794358253,0.03641456738114357,0.05882352963089943,0.07282913476228715,0.09243697673082352,0.1092436984181404,0.14565826952457428,0.1568627506494522,0.190476194024086,0.2072829157114029,0.22128851711750033,0.2156862765550613,0.22408963739871976,0.21288515627384183,0.20168067514896393,0.18207283318042755,0.18207283318042755,0.16526611149311063,0.1680672317743301,0.15126051008701324,0.1596638709306717,0.15126051008701324,0.16526611149311063,0.15126051008701324,0.15406163036823273,0.1568627506494522,0.15126051008701324,0.14845938980579376,0.15126051008701324,0.15126051008701324,0.1680672317743301,0.1428571492433548,0.14565826952457428,0.13445378839969635,0.14005602896213531,0.13445378839969635,0.14565826952457428,0.1428571492433548,0.15126051008701324,0.14005602896213531,0.14565826952457428,0.14565826952457428,0.1680672317743301,0.190476194024086,0.2100840359926224,0.19327731430530548,0.23249299824237823,0.24929971992969513,0.28291317820549006,0.26050421595573425,0.24929971992969513,0.22689075767993927,0.15126051008701324,0.10364145785570145,0.11484593898057936,0.10364145785570145,0.11484593898057936,0.10084033757448196,0.12044817954301834,0.12044817954301834,0.13445378839969635,0.11484593898057936,0.11204481869935988,0.13725490868091583,0.3501400649547577,0.6582633256912231,0.935574233531952,0.9103641510009763,0.750700294971466,0.5686274766921997,0.3837535083293914,0.2380952388048172,0.1260504275560379,0.04481792822480202,0.016806723549962044,0.0,0.002801120514050126,0.011204482056200504,0.028011204674839973,0.025210084393620488,0.01960784383118153,0.011204482056200504,0.04201680794358253,0.025210084393620488,0.030812324956059452,0.0,0.0,0.0,0.0,0.0,0.0,0.0,0.0,0.0,0.0,0.0,0.0,0.0,0.0,0.0,0.0,0.0,0.0,0.0,0.0,0.0,0.0,0.0,0.0,0.0,0.0,0.0,0.0,0.0,0.0,0.0,0.0,0.0,0.0,0.0,0.0,0.0,0.0,0.0,0.0,0.0,0.0,0.0,0.0,0.0,0.0,0.0,0.0,0.0,0.0,0.0,0.0,0.0,0.0,0.0,0.0,0.0,0.0,0.0,0.0,0.0,0.0,0.0,0.0,0.0,0.0,0.0,0.0,0.0,0.0,0.0,0.0,0.0,0.0,0.0,0.0,0.0,0.0,0.0,0.0,0.0,0.0
2025-07-08 12:30:05,000 - INFO - Ligne 31: danger_level=31.215824127197266, catégorie=30.0-39.0
2025-07-08 12:30:05,000 - INFO -   -> Créé categorize/30.0-39.0/line_0031.csv
2025-07-08 12:30:05,005 - INFO - Traitement de la ligne 32: 1.0,0.699999988079071,0.056666668504476554,0.03333333507180214,0.1366666704416275,0.11999999731779099,0.09666666388511656,0.07000000029802321,0.09333333373069763,0.1066666692495346,0.09333333373069763,0.09000000357627869,0.11999999731779099,0.1066666692495346,0.09000000357627869,0.11999999731779099,0.12666666507720947,0.11999999731779099,0.11666666716337204,0.11999999731779099,0.1433333307504654,0.14000000059604645,0.1466666609048843,0.15666666626930237,0.16333332657814023,0.15333333611488342,0.15666666626930237,0.1666666716337204,0.17666666209697723,0.1866666674613953,0.18333333730697632,0.2033333331346512,0.22333332896232605,0.21999999880790713,0.20999999344348907,0.2033333331346512,0.1966666728258133,0.1666666716337204,0.15000000596046448,0.1299999952316284,0.1466666609048843,0.1466666609048843,0.11666666716337204,0.10000000149011612,0.10999999940395357,0.1299999952316284,0.12333333492279051,0.10999999940395357,0.11333333700895308,0.11999999731779099,0.09666666388511656,0.08333333581686019,0.11999999731779099,0.11666666716337204,0.11666666716337204,0.12666666507720947,0.15333333611488342,0.1599999964237213,0.11666666716337204,0.11333333700895308,0.11333333700895308,0.09666666388511656,0.07999999821186066,0.059999998658895486,0.059999998658895486,0.07000000029802321,0.056666668504476554,0.053333334624767297,0.06666667014360428,0.026666667312383648,0.10333333164453506,0.4333333373069763,0.8566666841506958,0.8066666722297667,0.1866666674613953,0.0,0.13333334028720856,0.12333333492279051,0.07666666805744171,0.09000000357627869,0.09333333373069763,0.07333333045244217,0.07333333045244217,0.059999998658895486,0.07666666805744171,0.09333333373069763,0.07333333045244217,0.0,0.0,0.0,0.0,0.0,0.0,0.0,0.0,0.0,0.0,0.0,0.0,0.0,0.0,0.0,0.0,0.0,0.0,0.0,0.0,0.0,0.0,0.0,0.0,0.0,0.0,0.0,0.0,0.0,0.0,0.0,0.0,0.0,0.0,0.0,0.0,0.0,0.0,0.0,0.0,0.0,0.0,0.0,0.0,0.0,0.0,0.0,0.0,0.0,0.0,0.0,0.0,0.0,0.0,0.0,0.0,0.0,0.0,0.0,0.0,0.0,0.0,0.0,0.0,0.0,0.0,0.0,0.0,0.0,0.0,0.0,0.0,0.0,0.0,0.0,0.0,0.0,0.0,0.0,0.0,0.0,0.0,0.0,0.0,0.0,0.0,0.0,0.0,0.0,0.0,0.0,0.0,0.0,0.0,0.0,0.0,0.0,0.0,0.0,0.0,0.0
2025-07-08 12:30:05,818 - INFO - Ligne 32: danger_level=85.00121307373047, catégorie=80.0-89.0
2025-07-08 12:30:05,818 - INFO -   -> Créé categorize/80.0-89.0/line_0032.csv
2025-07-08 12:30:05,823 - INFO - Traitement de la ligne 33: 1.0,0.930434763431549,0.5095652341842651,0.27478259801864624,0.25565215945243835,0.2104347795248032,0.18956521153450007,0.16869565844535828,0.11999999731779099,0.11478260904550552,0.008695651777088642,0.0,0.005217391531914473,0.1791304349899292,0.17043478786945343,0.1113043501973152,0.23478260636329648,0.208695650100708,0.19826087355613708,0.1739130467176437,0.14782609045505524,0.11999999731779099,0.09739130735397337,0.13217391073703763,0.1269565224647522,0.15130434930324554,0.15130434930324554,0.14782609045505524,0.15130434930324554,0.15130434930324554,0.17217391729354858,0.1826086938381195,0.19130434095859528,0.2104347795248032,0.2278260886669159,0.24521739780902865,0.2365217357873917,0.24173912405967712,0.24521739780902865,0.239999994635582,0.2382608652114868,0.23478260636329648,0.2382608652114868,0.2365217357873917,0.2243478298187256,0.22956521809101105,0.2313043475151062,0.2313043475151062,0.22956521809101105,0.22086957097053528,0.20521739125251767,0.27478259801864624,0.40695652365684504,0.5982608795166016,0.7669565081596375,0.9200000166893004,0.9008695483207703,0.7721739411354066,0.5547826290130615,0.3895652294158936,0.239999994635582,0.20000000298023224,0.22260870039463043,0.21565216779708865,0.20521739125251767,0.21217390894889832,0.20521739125251767,0.19826087355613708,0.17739130556583405,0.0,0.0,0.0,0.0,0.0,0.0,0.0,0.0,0.0,0.0,0.0,0.0,0.0,0.0,0.0,0.0,0.0,0.0,0.0,0.0,0.0,0.0,0.0,0.0,0.0,0.0,0.0,0.0,0.0,0.0,0.0,0.0,0.0,0.0,0.0,0.0,0.0,0.0,0.0,0.0,0.0,0.0,0.0,0.0,0.0,0.0,0.0,0.0,0.0,0.0,0.0,0.0,0.0,0.0,0.0,0.0,0.0,0.0,0.0,0.0,0.0,0.0,0.0,0.0,0.0,0.0,0.0,0.0,0.0,0.0,0.0,0.0,0.0,0.0,0.0,0.0,0.0,0.0,0.0,0.0,0.0,0.0,0.0,0.0,0.0,0.0,0.0,0.0,0.0,0.0,0.0,0.0,0.0,0.0,0.0,0.0,0.0,0.0,0.0,0.0,0.0,0.0,0.0,0.0,0.0,0.0,0.0,0.0,0.0,0.0,0.0,0.0,0.0,0.0,0.0,0.0,0.0,0.0,0.0
2025-07-08 12:30:06,426 - INFO - Ligne 33: danger_level=43.87482452392578, catégorie=40.0-49.0
2025-07-08 12:30:06,427 - INFO -   -> Créé categorize/40.0-49.0/line_0033.csv
2025-07-08 12:30:06,432 - INFO - Traitement de la ligne 34: 0.8627049326896667,0.7684426307678223,0.38114753365516657,0.08913934230804443,0.23565573990345,0.2561475336551666,0.2090163975954056,0.21004098653793332,0.21311475336551663,0.20696721971035004,0.2090163975954056,0.21823769807815552,0.21926230192184448,0.2213114798069,0.2233606576919556,0.23565573990345,0.23872950673103327,0.23668032884597776,0.2428278625011444,0.25819671154022217,0.26844263076782227,0.2715163826942444,0.27971312403678894,0.2909836173057556,0.30737704038619995,0.32172131538391113,0.33196720480918884,0.3473360538482666,0.35553279519081116,0.34938523173332214,0.34938523173332214,0.3473360538482666,0.33094263076782227,0.3053278625011444,0.2807376980781555,0.26844263076782227,0.25819671154022217,0.24077868461608887,0.23155738413333887,0.23155738413333887,0.23155738413333887,0.2233606576919556,0.2284836024045944,0.23155738413333887,0.23053278028965,0.23053278028965,0.2284836024045944,0.2428278625011444,0.24795082211494443,0.2459016442298889,0.2561475336551666,0.2858606576919556,0.3288934528827667,0.38114753365516657,0.43852460384368896,0.5071721076965332,0.5727459192276001,0.6649590134620667,0.7622950673103331,0.8309426307678223,0.8586065769195556,0.9016393423080444,0.9743852615356445,1.0,0.8483606576919556,0.4549180269241333,0.1526639312505722,0.18237705528736117,0.14856557548046112,0.12192623317241667,0.1321721374988556,0.125,0.10963115096092224,0.09631147235631943,0.08504098653793336,0.07991803437471388,0.07479508221149443,0.05942622944712639,0.045081965625286095,0.04303278774023056,0.031762294471263885,0.01741803251206875,0.006147541105747223,0.0,0.0071721309795975685,0.008196720853447914,0.0,0.0,0.0,0.0,0.0,0.0,0.0,0.0,0.0,0.0,0.0,0.0,0.0,0.0,0.0,0.0,0.0,0.0,0.0,0.0,0.0,0.0,0.0,0.0,0.0,0.0,0.0,0.0,0.0,0.0,0.0,0.0,0.0,0.0,0.0,0.0,0.0,0.0,0.0,0.0,0.0,0.0,0.0,0.0,0.0,0.0,0.0,0.0,0.0,0.0,0.0,0.0,0.0,0.0,0.0,0.0,0.0,0.0,0.0,0.0,0.0,0.0,0.0,0.0,0.0,0.0,0.0,0.0,0.0,0.0,0.0,0.0,0.0,0.0,0.0,0.0,0.0,0.0,0.0,0.0,0.0,0.0,0.0,0.0,0.0,0.0,0.0,0.0,0.0,0.0,0.0,0.0,0.0,0.0,0.0,0.0,0.0,0.0,0.0,0.0,0.0,0.0
2025-07-08 12:30:07,366 - INFO - Ligne 34: danger_level=73.88539123535156, catégorie=70.0-79.0
2025-07-08 12:30:07,366 - INFO -   -> Créé categorize/70.0-79.0/line_0034.csv
2025-07-08 12:30:07,371 - INFO - Traitement de la ligne 35: 0.9281045794487,0.8464052081108093,0.5375816822052002,0.3562091588973999,0.3366013169288635,0.30392158031463623,0.26143792271614075,0.2222222238779068,0.2075163424015045,0.16830065846443176,0.14215686917304993,0.11601307243108748,0.1062091514468193,0.1013071909546852,0.1062091514468193,0.08496732264757155,0.09803921729326248,0.08006536215543747,0.08496732264757155,0.08169934898614883,0.07679738849401475,0.06535948067903519,0.0604575164616108,0.050653595477342606,0.053921569138765335,0.03267974033951759,0.03758170083165169,0.016339870169758797,0.013071895577013493,0.0,0.009803921915590765,0.0049019609577953815,0.022875817492604252,0.021241830661892887,0.05555555596947669,0.06862745434045792,0.08986928313970564,0.11764705926179884,0.14542484283447263,0.15196079015731812,0.17320261895656583,0.16993464529514313,0.17973856627941132,0.17483660578727722,0.1764705926179886,0.16830065846443176,0.17973856627941132,0.17483660578727722,0.17810457944869995,0.16830065846443176,0.17810457944869995,0.16830065846443176,0.17810457944869995,0.16993464529514313,0.1715686321258545,0.16339869797229767,0.1764705926179886,0.16830065846443176,0.17320261895656583,0.1666666716337204,0.1715686321258545,0.17483660578727722,0.18300653994083405,0.1666666716337204,0.1715686321258545,0.16503268480300903,0.1764705926179886,0.1764705926179886,0.17810457944869995,0.1715686321258545,0.18300653994083405,0.1715686321258545,0.19117647409439087,0.19607843458652496,0.20098039507865903,0.1846405267715454,0.1993464082479477,0.19607843458652496,0.2075163424015045,0.19281046092510223,0.1993464082479477,0.19281046092510223,0.1993464082479477,0.1862745136022568,0.18300653994083405,0.16830065846443176,0.17483660578727722,0.17483660578727722,0.17810457944869995,0.16503268480300903,0.18300653994083405,0.17483660578727722,0.17810457944869995,0.17320261895656583,0.17810457944869995,0.19771242141723633,0.33006536960601807,0.44117647409439087,0.6274510025978088,0.851307213306427,1.0,0.9852941036224365,0.7009803652763367,0.3823529481887817,0.3366013169288635,0.2973856329917908,0.2728758156299591,0.23856209218502045,0.22058823704719543,0.18137255311012268,0.1617647111415863,0.13071896135807037,0.11764705926179884,0.1062091514468193,0.10784313827753068,0.09803921729326248,0.10294117778539656,0.08660130947828291,0.09967320412397385,0.08660130947828291,0.0,0.0,0.0,0.0,0.0,0.0,0.0,0.0,0.0,0.0,0.0,0.0,0.0,0.0,0.0,0.0,0.0,0.0,0.0,0.0,0.0,0.0,0.0,0.0,0.0,0.0,0.0,0.0,0.0,0.0,0.0,0.0,0.0,0.0,0.0,0.0,0.0,0.0,0.0,0.0,0.0,0.0,0.0,0.0,0.0,0.0,0.0,0.0,0.0,0.0,0.0,0.0,0.0,0.0,0.0,0.0,0.0,0.0,0.0,0.0,0.0,0.0,0.0,0.0,0.0,0.0,0.0,0.0
2025-07-08 12:30:08,195 - INFO - Ligne 35: danger_level=59.321842193603516, catégorie=50.0-59.0
2025-07-08 12:30:08,196 - INFO -   -> Créé categorize/50.0-59.0/line_0035.csv
2025-07-08 12:30:08,201 - INFO - Traitement de la ligne 36: 0.8830083608627318,0.835654616355896,0.6044568419456482,0.058495823293924325,0.0,0.10863509774208067,0.133704736828804,0.15041783452033997,0.18662953376770017,0.17270195484161377,0.25905293226242065,0.19777159392833707,0.16991643607616425,0.14763231575489044,0.133704736828804,0.19220055639743805,0.22005571424961087,0.18941503763198847,0.25626739859580994,0.12534819543361664,0.25626739859580994,0.22005571424961087,0.23398329317569727,0.2534818947315216,0.18105849623680115,0.2701949775218964,0.22005571424961087,0.28133705258369446,0.320334255695343,0.2729805111885071,0.33704736828804016,0.2980501353740692,0.40111419558525085,0.3927576541900634,0.2729805111885071,0.23676879703998563,0.2757660150527954,0.24791085720062253,0.25905293226242065,0.2646239697933197,0.2729805111885071,0.26740947365760803,0.261838436126709,0.2534818947315216,0.26740947365760803,0.36490249633789057,0.09470751881599426,0.2395543158054352,0.2228412330150604,0.19777159392833707,0.21448467671871185,0.20334261655807492,0.22005571424961087,0.22005571424961087,0.2311977744102478,0.23398329317569727,0.2311977744102478,0.23676879703998563,0.24791085720062253,0.25905293226242065,0.27855151891708374,0.27855151891708374,0.2841225564479828,0.2646239697933197,0.25905293226242065,0.24233983457088473,0.24791085720062253,0.24512535333633423,0.2757660150527954,0.2729805111885071,0.30083566904068,0.24791085720062253,0.2701949775218964,0.2534818947315216,0.26740947365760803,0.2534818947315216,0.2701949775218964,0.2729805111885071,0.261838436126709,0.24233983457088473,0.2952646315097809,0.4317548871040344,0.5933147668838501,0.807799458503723,1.0,0.8913649320602418,0.38161560893058777,0.05571030825376511,0.16155989468097687,0.19777159392833707,0.20055709779262543,0.18105849623680115,0.17548745870590207,0.1949860751628876,0.21727019548416135,0.20612813532352448,0.21169915795326233,0.21169915795326233,0.2228412330150604,0.21169915795326233,0.22841225564479828,0.0,0.0,0.0,0.0,0.0,0.0,0.0,0.0,0.0,0.0,0.0,0.0,0.0,0.0,0.0,0.0,0.0,0.0,0.0,0.0,0.0,0.0,0.0,0.0,0.0,0.0,0.0,0.0,0.0,0.0,0.0,0.0,0.0,0.0,0.0,0.0,0.0,0.0,0.0,0.0,0.0,0.0,0.0,0.0,0.0,0.0,0.0,0.0,0.0,0.0,0.0,0.0,0.0,0.0,0.0,0.0,0.0,0.0,0.0,0.0,0.0,0.0,0.0,0.0,0.0,0.0,0.0,0.0,0.0,0.0,0.0,0.0,0.0,0.0,0.0,0.0,0.0,0.0,0.0,0.0,0.0,0.0,0.0,0.0,0.0,0.0,0.0
2025-07-08 12:30:09,005 - INFO - Ligne 36: danger_level=40.090057373046875, catégorie=40.0-49.0
2025-07-08 12:30:09,005 - INFO -   -> Créé categorize/40.0-49.0/line_0036.csv
2025-07-08 12:30:09,010 - INFO - Traitement de la ligne 37: 0.9413629174232483,0.8732171058654785,0.33755943179130554,0.0,0.14580032229423523,0.2535657584667206,0.28367671370506287,0.3042789101600647,0.30110934376716614,0.2963549792766571,0.30744850635528564,0.31537243723869324,0.3058637082576752,0.3042789101600647,0.31695720553398127,0.31537243723869324,0.3106180727481842,0.3058637082576752,0.31695720553398127,0.31854200363159174,0.3042789101600647,0.3042789101600647,0.32171157002449036,0.31695720553398127,0.31854200363159174,0.32329636812210083,0.3423137962818146,0.34548336267471313,0.3423137962818146,0.3486529290676117,0.3692551553249359,0.3835182189941406,0.3946117162704468,0.4041204452514648,0.4278922379016876,0.44690966606140137,0.4500792324542999,0.4611727297306061,0.4754358232021332,0.47702059149742126,0.46275752782821655,0.44690966606140137,0.4374009370803833,0.42472267150878906,0.3946117162704468,0.375594288110733,0.36608558893203735,0.36608558893203735,0.34389856457710266,0.3407289981842041,0.3486529290676117,0.35023772716522217,0.33280506730079645,0.32963550090789795,0.33755943179130554,0.33755943179130554,0.33280506730079645,0.33755943179130554,0.33755943179130554,0.3470681309700012,0.34389856457710266,0.34548336267471313,0.3565768599510193,0.35816165804862976,0.35182249546051025,0.35023772716522217,0.3613312244415283,0.3629159927368164,0.35023772716522217,0.3534072935581207,0.3549920618534088,0.3565768599510193,0.35182249546051025,0.34548336267471313,0.35023772716522217,0.3486529290676117,0.3486529290676117,0.34548336267471313,0.3534072935581207,0.35182249546051025,0.3407289981842041,0.33755943179130554,0.34548336267471313,0.3470681309700012,0.33755943179130554,0.335974633693695,0.339144229888916,0.34389856457710266,0.3312202990055084,0.33280506730079645,0.335974633693695,0.34548336267471313,0.339144229888916,0.335974633693695,0.34389856457710266,0.339144229888916,0.335974633693695,0.3312202990055084,0.3423137962818146,0.3423137962818146,0.33755943179130554,0.33280506730079645,0.3407289981842041,0.3407289981842041,0.33280506730079645,0.335974633693695,0.34548336267471313,0.35023772716522217,0.34548336267471313,0.3407289981842041,0.35182249546051025,0.3534072935581207,0.34389856457710266,0.3407289981842041,0.35023772716522217,0.3549920618534088,0.34389856457710266,0.3423137962818146,0.3549920618534088,0.3565768599510193,0.3549920618534088,0.35816165804862976,0.38034865260124207,0.3961965143680573,0.39302694797515864,0.39778131246566767,0.39778131246566767,0.3961965143680573,0.3787638545036316,0.375594288110733,0.370839923620224,0.35816165804862976,0.33755943179130554,0.32329636812210083,0.334389865398407,0.33755943179130554,0.33280506730079645,0.32488113641738886,0.33280506730079645,0.3407289981842041,0.334389865398407,0.33280506730079645,0.34389856457710266,0.35023772716522217,0.3470681309700012,0.3470681309700012,0.3692551553249359,0.4278922379016876,0.6053882837295532,0.8383518457412719,1.0,0.7194928526878357,0.19968304038047793,0.09667194634675981,0.28367671370506287,0.31854200363159174,0.32329636812210083,0.34548336267471313,0.34548336267471313,0.3470681309700012,0.3486529290676117,0.33755943179130554,0.3549920618534088,0.35023772716522217,0.34389856457710266,0.335974633693695,0.3470681309700012,0.35023772716522217,0.34548336267471313,0.339144229888916,0.3470681309700012,0.3549920618534088,0.3470681309700012,0.3470681309700012,0.35974642634391785,0.36608558893203735,0.36608558893203735,0.3724247217178345,0.39144214987754816,0.40095087885856634,0.4041204452514648,0.0,0.0,0.0,0.0,0.0,0.0,0.0
2025-07-08 12:30:09,940 - INFO - Ligne 37: danger_level=84.99983215332031, catégorie=80.0-89.0
2025-07-08 12:30:09,941 - INFO -   -> Créé categorize/80.0-89.0/line_0037.csv
2025-07-08 12:30:09,946 - INFO - Traitement de la ligne 38: 0.9894099831581117,0.7488653659820557,0.3570348024368286,0.04689863696694374,0.0,0.11649016290903091,0.12102874368429184,0.0862329825758934,0.0801815465092659,0.08169440180063246,0.0801815465092659,0.06656581163406372,0.0680786669254303,0.07261724770069121,0.06959152966737747,0.07564296573400497,0.0801815465092659,0.0983358547091484,0.12102874368429184,0.1301058977842331,0.16338880360126495,0.19062027335166928,0.22541603446006772,0.2586989402770996,0.28744328022003174,0.33131617307662964,0.36006051301956177,0.3751890957355499,0.3918305635452271,0.4069591462612152,0.4114977419376373,0.4099848568439484,0.3933434188365936,0.3842662572860718,0.3751890957355499,0.34947049617767334,0.3343419134616852,0.3131618797779083,0.2950075566768646,0.27534040808677673,0.24962177872657773,0.23751890659332275,0.23903177678585047,0.2208774536848068,0.21936459839344025,0.24205748736858368,0.26777610182762146,0.2829046845436096,0.29349470138549805,0.3040847182273865,0.30559757351875305,0.24962177872657773,0.20272314548492432,0.19515885412693024,0.1921331286430359,0.1860816925764084,0.18759454786777496,0.1845688372850418,0.1936459839344025,0.19062027335166928,0.17549167573451996,0.17549167573451996,0.2042360007762909,0.3963691294193268,0.7700453996658325,1.0,0.7987897396087646,0.4735249578952789,0.15885022282600403,0.02118002995848656,0.11951588839292526,0.14220876991748807,0.09531013667583464,0.09379727393388748,0.09984871745109558,0.09379727393388748,0.08320726454257965,0.09077155590057373,0.08925870060920715,0.0,0.0,0.0,0.0,0.0,0.0,0.0,0.0,0.0,0.0,0.0,0.0,0.0,0.0,0.0,0.0,0.0,0.0,0.0,0.0,0.0,0.0,0.0,0.0,0.0,0.0,0.0,0.0,0.0,0.0,0.0,0.0,0.0,0.0,0.0,0.0,0.0,0.0,0.0,0.0,0.0,0.0,0.0,0.0,0.0,0.0,0.0,0.0,0.0,0.0,0.0,0.0,0.0,0.0,0.0,0.0,0.0,0.0,0.0,0.0,0.0,0.0,0.0,0.0,0.0,0.0,0.0,0.0,0.0,0.0,0.0,0.0,0.0,0.0,0.0,0.0,0.0,0.0,0.0,0.0,0.0,0.0,0.0,0.0,0.0,0.0,0.0,0.0,0.0,0.0,0.0,0.0,0.0,0.0,0.0,0.0,0.0,0.0,0.0,0.0,0.0,0.0,0.0,0.0,0.0,0.0,0.0,0.0,0.0
2025-07-08 12:30:10,723 - INFO - Ligne 38: danger_level=53.83367919921875, catégorie=50.0-59.0
2025-07-08 12:30:10,723 - INFO -   -> Créé categorize/50.0-59.0/line_0038.csv
2025-07-08 12:30:10,728 - INFO - Traitement de la ligne 39: 0.978723406791687,0.5127659440040588,0.21702127158641812,0.22765956819057465,0.12553191184997559,0.0,0.0021276595070958138,0.08723404258489607,0.1872340440750122,0.2510638236999512,0.26595744490623474,0.278723418712616,0.28936171531677246,0.28936171531677246,0.2851063907146454,0.2957446873188019,0.3021276593208313,0.30425530672073364,0.2978723347187042,0.3085106313228607,0.3191489279270172,0.3191489279270172,0.3234042525291443,0.3297872245311737,0.3361702263355255,0.3404255211353302,0.346808522939682,0.3638297915458679,0.3723404109477997,0.3765957355499268,0.38510638475418085,0.4042553305625916,0.4255319237709045,0.44255319237709045,0.45106384158134466,0.47446808218955994,0.5,0.5021276473999025,0.5085106492042542,0.5191489458084105,0.5340425372123718,0.5297872424125671,0.521276593208313,0.5085106492042542,0.49148935079574574,0.4659574329853058,0.431914895772934,0.41276594996452326,0.389361709356308,0.3659574389457703,0.34255319833755493,0.3340425491333008,0.3297872245311737,0.31702128052711487,0.31063830852508545,0.31063830852508545,0.31489360332489014,0.31489360332489014,0.30425530672073364,0.31276595592498774,0.31276595592498774,0.3191489279270172,0.31063830852508545,0.31702128052711487,0.32127660512924194,0.31489360332489014,0.3063829839229584,0.31276595592498774,0.31063830852508545,0.3063829839229584,0.3021276593208313,0.3000000119209289,0.30425530672073364,0.3000000119209289,0.29361701011657715,0.2957446873188019,0.3000000119209289,0.2978723347187042,0.29361701011657715,0.2914893627166748,0.3021276593208313,0.2957446873188019,0.2872340381145477,0.28936171531677246,0.2957446873188019,0.29361701011657715,0.2872340381145477,0.29361701011657715,0.2957446873188019,0.2978723347187042,0.28936171531677246,0.2914893627166748,0.29361701011657715,0.2914893627166748,0.2851063907146454,0.29361701011657715,0.2978723347187042,0.2978723347187042,0.29361701011657715,0.3021276593208313,0.3191489279270172,0.32127660512924194,0.31489360332489014,0.3340425491333008,0.3617021143436432,0.3659574389457703,0.3446808457374573,0.3361702263355255,0.325531929731369,0.3063829839229584,0.28297871351242065,0.2808510661125183,0.2872340381145477,0.2851063907146454,0.27659574151039124,0.2808510661125183,0.28936171531677246,0.28297871351242065,0.2808510661125183,0.26595744490623474,0.20000000298023224,0.28936171531677246,0.7085106372833252,1.0,0.5744680762290955,0.22553192079067233,0.2148936241865158,0.12340425699949265,0.010638297535479069,0.019148936495184895,0.10212765634059906,0.1957446783781052,0.2638297975063324,0.27659574151039124,0.278723418712616,0.2872340381145477,0.3021276593208313,0.2978723347187042,0.2978723347187042,0.30425530672073364,0.31063830852508545,0.31276595592498774,0.31276595592498774,0.3191489279270172,0.3297872245311737,0.32127660512924194,0.325531929731369,0.3361702263355255,0.0,0.0,0.0,0.0,0.0,0.0,0.0,0.0,0.0,0.0,0.0,0.0,0.0,0.0,0.0,0.0,0.0,0.0,0.0,0.0,0.0,0.0,0.0,0.0,0.0,0.0,0.0,0.0,0.0,0.0,0.0,0.0,0.0,0.0,0.0,0.0,0.0,0.0,0.0,0.0
2025-07-08 12:30:11,457 - INFO - Ligne 39: danger_level=39.11440658569336, catégorie=30.0-39.0
2025-07-08 12:30:11,457 - INFO -   -> Créé categorize/30.0-39.0/line_0039.csv
2025-07-08 12:30:11,461 - INFO - Traitement de la ligne 40: 0.9513513445854189,0.7783783674240112,0.6324324607849121,0.2162162214517593,0.16756756603717804,0.0972972959280014,0.1297297328710556,0.12432432174682616,0.1135135143995285,0.08648648858070372,0.0648648664355278,0.02162162214517593,0.0486486479640007,0.005405405536293984,0.037837836891412735,0.0,0.04324324429035186,0.005405405536293984,0.0486486479640007,0.01621621660888195,0.037837836891412735,0.0486486479640007,0.09189189225435257,0.08648648858070372,0.11891891807317732,0.07567567378282547,0.13513512909412384,0.0810810774564743,0.11891891807317732,0.0972972959280014,0.11891891807317732,0.10270269960165024,0.12432432174682616,0.09189189225435257,0.1513513475656509,0.1459459513425827,0.17297297716140747,0.1459459513425827,0.15675675868988037,0.1297297328710556,0.17297297716140747,0.1297297328710556,0.15675675868988037,0.15675675868988037,0.1783783733844757,0.11891891807317732,0.17297297716140747,0.1459459513425827,0.16756756603717804,0.10810811072587966,0.1135135143995285,0.1135135143995285,0.16756756603717804,0.15675675868988037,0.1783783733844757,0.1513513475656509,0.20540539920330048,0.1783783733844757,0.1783783733844757,0.15675675868988037,0.1783783733844757,0.16756756603717804,0.1945945918560028,0.1783783733844757,0.16756756603717804,0.17297297716140747,0.15675675868988037,0.1459459513425827,0.18378378450870517,0.15675675868988037,0.1945945918560028,0.1621621549129486,0.1945945918560028,0.17297297716140747,0.2216216176748276,0.1783783733844757,0.23243242502212524,0.2162162214517593,0.2162162214517593,0.1945945918560028,0.227027028799057,0.18378378450870517,0.2756756842136383,0.5621621608734131,0.7945945858955382,1.0,0.8810811042785645,0.6594594717025757,0.2702702581882477,0.1621621549129486,0.14054054021835327,0.11891891807317732,0.10270269960165024,0.0972972959280014,0.1297297328710556,0.09189189225435257,0.14054054021835327,0.07567567378282547,0.0810810774564743,0.04324324429035186,0.0648648664355278,0.0648648664355278,0.10270269960165024,0.10270269960165024,0.0972972959280014,0.0648648664355278,0.1297297328710556,0.1135135143995285,0.0,0.0,0.0,0.0,0.0,0.0,0.0,0.0,0.0,0.0,0.0,0.0,0.0,0.0,0.0,0.0,0.0,0.0,0.0,0.0,0.0,0.0,0.0,0.0,0.0,0.0,0.0,0.0,0.0,0.0,0.0,0.0,0.0,0.0,0.0,0.0,0.0,0.0,0.0,0.0,0.0,0.0,0.0,0.0,0.0,0.0,0.0,0.0,0.0,0.0,0.0,0.0,0.0,0.0,0.0,0.0,0.0,0.0,0.0,0.0,0.0,0.0,0.0,0.0,0.0,0.0,0.0,0.0,0.0,0.0,0.0,0.0,0.0,0.0,0.0,0.0,0.0,0.0,0.0,0.0
2025-07-08 12:30:12,324 - INFO - Ligne 40: danger_level=54.45057678222656, catégorie=50.0-59.0
2025-07-08 12:30:12,324 - INFO -   -> Créé categorize/50.0-59.0/line_0040.csv
2025-07-08 12:30:12,331 - INFO - Traitement de la ligne 41: 0.16568046808242795,0.5562130212783812,0.7751479148864746,0.2011834383010864,0.1005917191505432,0.37869822978973383,0.5739644765853882,0.6094674468040465,0.6331360936164856,0.6568047404289246,0.6804733872413635,0.6863905191421509,0.6804733872413635,0.7100591659545897,0.7278106212615967,0.715976357460022,0.715976357460022,0.7100591659545897,0.7100591659545897,0.715976357460022,0.7455621361732483,0.7337278127670288,0.7514792680740355,0.7396449446678162,0.7514792680740355,0.7692307829856871,0.7928994297981262,0.7928994297981262,0.810650885105133,0.8165680766105651,0.834319531917572,0.8698225021362304,0.88165682554245,0.88165682554245,0.9230769276618956,0.9230769276618956,0.9349112510681152,0.9644970297813416,0.9940828680992126,1.0,0.9822485446929933,0.9289940595626832,0.9053254723548888,0.8520709872245789,0.8165680766105651,0.7514792680740355,0.7100591659545897,0.7041420340538025,0.6863905191421509,0.668639063835144,0.6627218723297119,0.668639063835144,0.6568047404289246,0.639053225517273,0.6449704170227051,0.639053225517273,0.6508875489234924,0.6331360936164856,0.639053225517273,0.6449704170227051,0.6627218723297119,0.6508875489234924,0.6508875489234924,0.6508875489234924,0.6804733872413635,0.639053225517273,0.6508875489234924,0.6449704170227051,0.6449704170227051,0.639053225517273,0.668639063835144,0.6272189617156982,0.6153846383094788,0.6094674468040465,0.6035503149032593,0.5976331233978271,0.5976331233978271,0.6035503149032593,0.6035503149032593,0.5976331233978271,0.5976331233978271,0.5798816680908203,0.5976331233978271,0.5739644765853882,0.5857987999916077,0.5917159914970398,0.5857987999916077,0.5739644765853882,0.5798816680908203,0.5798816680908203,0.5680473446846008,0.5562130212783812,0.5680473446846008,0.5739644765853882,0.5680473446846008,0.5739644765853882,0.5857987999916077,0.5680473446846008,0.5739644765853882,0.5917159914970398,0.6213017702102661,0.6508875489234924,0.6508875489234924,0.668639063835144,0.6508875489234924,0.6153846383094788,0.5798816680908203,0.5798816680908203,0.5857987999916077,0.6153846383094788,0.6094674468040465,0.5502958297729492,0.5384615659713745,0.5443786978721619,0.5384615659713745,0.5384615659713745,0.5325443744659424,0.5325443744659424,0.5384615659713745,0.5384615659713745,0.5207100510597229,0.5502958297729492,0.5502958297729492,0.5739644765853882,0.6331360936164856,0.5207100510597229,0.2958579957485199,0.017751479521393776,0.23076923191547397,0.7100591659545897,0.4674556255340576,0.0,0.27218934893608093,0.5325443744659424,0.5680473446846008,0.5798816680908203,0.6094674468040465,0.6213017702102661,0.6508875489234924,0.668639063835144,0.6627218723297119,0.6449704170227051,0.6745561957359314,0.6508875489234924,0.6745561957359314,0.6568047404289246,0.6568047404289246,0.692307710647583,0.7041420340538025,0.692307710647583,0.7041420340538025,0.7218934893608093,0.0,0.0,0.0,0.0,0.0,0.0,0.0,0.0,0.0,0.0,0.0,0.0,0.0,0.0,0.0,0.0,0.0,0.0,0.0,0.0,0.0,0.0,0.0,0.0,0.0,0.0,0.0,0.0,0.0,0.0,0.0,0.0,0.0,0.0,0.0,0.0
2025-07-08 12:30:13,027 - INFO - Ligne 41: danger_level=30.000102996826172, catégorie=30.0-39.0
2025-07-08 12:30:13,027 - INFO -   -> Créé categorize/30.0-39.0/line_0041.csv
2025-07-08 12:30:13,032 - INFO - Traitement de la ligne 42: 0.9671533107757568,0.8430656790733337,0.15875911712646484,0.0,0.24270072579383847,0.29927006363868713,0.25912410020828247,0.25364962220191956,0.25547444820404047,0.25912410020828247,0.26459854841232294,0.26094889640808105,0.25912410020828247,0.26459854841232294,0.2718978226184845,0.2700729966163635,0.25912410020828247,0.26459854841232294,0.27554744482040405,0.2718978226184845,0.2682481706142425,0.2737226188182831,0.277372270822525,0.2810218930244446,0.277372270822525,0.2810218930244446,0.2883211672306061,0.2883211672306061,0.2810218930244446,0.2810218930244446,0.2974452674388885,0.29927006363868713,0.2974452674388885,0.3010948896408081,0.3156934380531311,0.31386861205101013,0.31386861205101013,0.3156934380531311,0.3248175084590912,0.32116788625717163,0.31934306025505066,0.3156934380531311,0.32846716046333313,0.3229927122592926,0.3083941638469696,0.29927006363868713,0.29014599323272705,0.2700729966163635,0.24635036289691925,0.237226277589798,0.24452555179595947,0.2335766404867172,0.2208029180765152,0.21532846987247467,0.22810219228267667,0.22810219228267667,0.22445255517959595,0.22627736628055567,0.237226277589798,0.24087591469287872,0.23905108869075772,0.24452555179595947,0.25547444820404047,0.25364962220191956,0.24270072579383847,0.25,0.25182482600212097,0.25182482600212097,0.24087591469287872,0.24635036289691925,0.24817518889904025,0.24270072579383847,0.2335766404867172,0.2335766404867172,0.24087591469287872,0.23905108869075772,0.23175182938575745,0.22627736628055567,0.23175182938575745,0.23540146648883817,0.2208029180765152,0.22992700338363647,0.23905108869075772,0.23540146648883817,0.22992700338363647,0.23175182938575745,0.237226277589798,0.2335766404867172,0.22810219228267667,0.22992700338363647,0.23905108869075772,0.2335766404867172,0.22445255517959595,0.22992700338363647,0.24087591469287872,0.24270072579383847,0.25182482600212097,0.2700729966163635,0.28467154502868647,0.2883211672306061,0.2810218930244446,0.2718978226184845,0.2791970670223236,0.2737226188182831,0.2572992742061615,0.24087591469287872,0.23905108869075772,0.237226277589798,0.22627736628055567,0.22810219228267667,0.237226277589798,0.23905108869075772,0.2335766404867172,0.23905108869075772,0.25,0.25,0.25364962220191956,0.26459854841232294,0.28284671902656555,0.3521897792816162,0.6259124279022217,1.0,0.797445237636566,0.12591241300106049,0.029197080060839653,0.25364962220191956,0.3175182342529297,0.28467154502868647,0.2700729966163635,0.2810218930244446,0.29197078943252563,0.2864963412284851,0.2883211672306061,0.2864963412284851,0.2974452674388885,0.2974452674388885,0.2937956154346466,0.29197078943252563,0.3010948896408081,0.3029197156429291,0.29927006363868713,0.2974452674388885,0.30656933784484863,0.31386861205101013,0.30474451184272766,0.30656933784484863,0.0,0.0,0.0,0.0,0.0,0.0,0.0,0.0,0.0,0.0,0.0,0.0,0.0,0.0,0.0,0.0,0.0,0.0,0.0,0.0,0.0,0.0,0.0,0.0,0.0,0.0,0.0,0.0,0.0,0.0,0.0,0.0,0.0,0.0,0.0,0.0,0.0,0.0,0.0,0.0,0.0,0.0
2025-07-08 12:30:14,277 - INFO - Ligne 42: danger_level=62.57079315185547, catégorie=60.0-69.0
2025-07-08 12:30:14,277 - INFO -   -> Créé categorize/60.0-69.0/line_0042.csv
2025-07-08 12:30:14,282 - INFO - Traitement de la ligne 43: 0.9242658615112304,0.7820711135864259,0.18856260180473328,0.007727975491434334,0.2519319951534271,0.31066459417343134,0.2720247209072113,0.2596599757671356,0.27047914266586304,0.27820712327957153,0.27820712327957153,0.2766615152359009,0.27357032895088196,0.2828438878059387,0.28593507409095764,0.28129830956459045,0.2828438878059387,0.2874806821346283,0.2843894958496094,0.28129830956459045,0.28593507409095764,0.2905718684196472,0.2952086627483368,0.2905718684196472,0.2905718684196472,0.30448222160339355,0.3060278296470642,0.30448222160339355,0.3029366433620453,0.31221020221710205,0.31530138850212097,0.31221020221710205,0.3183925747871399,0.3261205554008484,0.330757349729538,0.32921174168586725,0.33230292797088623,0.3400309085845947,0.3369397222995758,0.330757349729538,0.33230292797088623,0.3415765166282654,0.3415765166282654,0.33539411425590515,0.330757349729538,0.32457494735717773,0.31221020221710205,0.29211747646331787,0.28593507409095764,0.28129830956459045,0.27357032895088196,0.2612055540084839,0.2612055540084839,0.26584234833717346,0.2720247209072113,0.27047914266586304,0.2720247209072113,0.27820712327957153,0.2766615152359009,0.2766615152359009,0.27820712327957153,0.2874806821346283,0.28593507409095764,0.27820712327957153,0.28129830956459045,0.2905718684196472,0.2874806821346283,0.27975270152091974,0.2751159071922302,0.28129830956459045,0.2766615152359009,0.27357032895088196,0.2766615152359009,0.2828438878059387,0.29366305470466614,0.29675424098968506,0.30448222160339355,0.3230293691158294,0.3261205554008484,0.3137558102607727,0.3183925747871399,0.3183925747871399,0.299845427274704,0.27820712327957153,0.27047914266586304,0.2751159071922302,0.27047914266586304,0.26275116205215454,0.2612055540084839,0.2689335346221924,0.26738795638084406,0.26275116205215454,0.2642967402935028,0.2720247209072113,0.2766615152359009,0.2751159071922302,0.27820712327957153,0.31530138850212097,0.468315303325653,0.8299845457077025,1.0,0.5285934805870056,0.0,0.1854714006185532,0.3369397222995758,0.31530138850212097,0.29211747646331787,0.2905718684196472,0.299845427274704,0.29829984903335566,0.3029366433620453,0.30139103531837463,0.3029366433620453,0.31066459417343134,0.3060278296470642,0.30448222160339355,0.3029366433620453,0.3168469965457916,0.3137558102607727,0.3060278296470642,0.3075734078884125,0.0,0.0,0.0,0.0,0.0,0.0,0.0,0.0,0.0,0.0,0.0,0.0,0.0,0.0,0.0,0.0,0.0,0.0,0.0,0.0,0.0,0.0,0.0,0.0,0.0,0.0,0.0,0.0,0.0,0.0,0.0,0.0,0.0,0.0,0.0,0.0,0.0,0.0,0.0,0.0,0.0,0.0,0.0,0.0,0.0,0.0,0.0,0.0,0.0,0.0,0.0,0.0,0.0,0.0,0.0,0.0,0.0,0.0,0.0,0.0,0.0,0.0,0.0,0.0,0.0,0.0,0.0
2025-07-08 12:30:15,122 - INFO - Ligne 43: danger_level=78.72744750976562, catégorie=70.0-79.0
2025-07-08 12:30:15,123 - INFO -   -> Créé categorize/70.0-79.0/line_0043.csv
