time,voltage
0.7623947614593077,0.9985185185185185
0.7240411599625819,0.9985185185185185
0.529466791393826,0.9985185185185185
0.3938260056127222,0.9985185185185185
0.3161833489242282,0.9985185185185185
0.025257249766136577,0.9985185185185185
0.9766136576239476,0.9911111111111112
0.9569691300280636,0.9911111111111112
0.8016838166510758,0.9911111111111112
0.7043966323666978,0.9911111111111112
0.6847521047708138,0.9911111111111112
0.6847521047708138,0.9925925925925926
0.6651075771749299,0.9911111111111112
0.6267539756782039,0.9911111111111112
0.5884003741814781,0.9911111111111112
0.54911131898971,0.9911111111111112
0.54911131898971,0.9925925925925926
0.509822263797942,0.9911111111111112
0.3545369504209542,0.9911111111111112
0.35547240411599623,0.9911111111111112
0.33582787652011226,0.9911111111111112
0.16089803554724041,0.9911111111111112
0.1412535079513564,0.9911111111111112
0.1216089803554724,0.9911111111111112
0.0832553788587465,0.9911111111111112
0.06361085126286249,0.9911111111111112
0.04396632366697849,0.9911111111111112
0.9953227315247896,0.9896296296296296
0.9953227315247896,0.9925925925925926
0.8989710009354537,0.9896296296296296
0.8980355472404116,0.9911111111111112
0.8989710009354537,0.9925925925925926
0.8203928905519177,0.9896296296296296
0.8203928905519177,0.9925925925925926
0.7623947614593077,0.9896296296296296
0.7623947614593077,0.9925925925925926
0.7240411599625819,0.9896296296296296
0.7240411599625819,0.9925925925925926
0.646398503274088,0.9896296296296296
0.646398503274088,0.9925925925925926
0.6071094480823199,0.9896296296296296
0.6071094480823199,0.9925925925925926
0.529466791393826,0.9896296296296296
0.529466791393826,0.9925925925925926
0.4714686623012161,0.9896296296296296
0.4714686623012161,0.9925925925925926
0.3938260056127222,0.9896296296296296
0.3938260056127222,0.9925925925925926
0.3161833489242282,0.9896296296296296
0.3161833489242282,0.9925925925925926
0.29653882132834425,0.9896296296296296
0.29653882132834425,0.9925925925925926
0.9373246024321796,0.9881481481481481
0.9373246024321796,1.0
0.25818521983161835,0.9881481481481481
0.25818521983161835,1.0
0.025257249766136577,0.9881481481481481
0.025257249766136577,0.9925925925925926
0.33582787652011226,0.9718518518518519
0.06361085126286249,0.9718518518518519
0.9953227315247896,0.9703703703703703
0.9953227315247896,0.9718518518518519
0.9766136576239476,0.9703703703703703
0.9766136576239476,0.9718518518518519
0.8980355472404116,0.9703703703703703
0.8980355472404116,0.9718518518518519
0.8989710009354537,0.9718518518518519
0.8989710009354537,0.9703703703703703
0.3938260056127222,0.9703703703703703
0.3938260056127222,0.9718518518518519
0.3545369504209542,0.9703703703703703
0.3545369504209542,0.9718518518518519
0.35547240411599623,0.9718518518518519
0.3161833489242282,0.9703703703703703
0.3161833489242282,0.9718518518518519
0.29653882132834425,0.9703703703703703
0.29653882132834425,0.9718518518518519
0.16089803554724041,0.9703703703703703
0.16089803554724041,0.9718518518518519
0.1216089803554724,0.9703703703703703
0.1216089803554724,0.9718518518518519
0.0832553788587465,0.9703703703703703
0.0832553788587465,0.9718518518518519
0.04396632366697849,0.9703703703703703
0.04396632366697849,0.9718518518518519
0.25818521983161835,0.9688888888888889
0.25818521983161835,0.9748148148148148
0.025257249766136577,0.9688888888888889
0.025257249766136577,0.9733333333333334
0.9569691300280636,0.9614814814814815
0.8793264733395697,0.9614814814814815
0.1796071094480823,0.9614814814814815
0.1412535079513564,0.9614814814814815
0.1019644527595884,0.9614814814814815
0.9953227315247896,0.96
0.9953227315247896,0.9614814814814815
0.9766136576239476,0.96
0.9766136576239476,0.9614814814814815
0.8980355472404116,0.96
0.8980355472404116,0.9614814814814815
0.8989710009354537,0.9629629629629629
0.8989710009354537,0.96
0.3938260056127222,0.96
0.3938260056127222,0.9629629629629629
0.3545369504209542,0.96
0.3545369504209542,0.9614814814814815
0.35547240411599623,0.9614814814814815
0.35547240411599623,0.96
0.33582787652011226,0.96
0.33582787652011226,0.9614814814814815
0.3161833489242282,0.96
0.3161833489242282,0.9614814814814815
0.29653882132834425,0.96
0.29653882132834425,0.9614814814814815
0.16089803554724041,0.96
0.16089803554724041,0.9614814814814815
0.1216089803554724,0.96
0.1216089803554724,0.9614814814814815
0.0832553788587465,0.96
0.0832553788587465,0.9614814814814815
0.04396632366697849,0.96
0.04396632366697849,0.9614814814814815
0.04490177736202058,0.9614814814814815
0.25818521983161835,0.9585185185185185
0.25818521983161835,0.9644444444444444
0.025257249766136577,0.9585185185185185
0.025257249766136577,0.9629629629629629
0.9766136576239476,0.9511111111111111
0.3545369504209542,0.9511111111111111
0.35547240411599623,0.9511111111111111
0.33582787652011226,0.9511111111111111
0.3161833489242282,0.9511111111111111
0.3161833489242282,0.9525925925925925
0.29653882132834425,0.9511111111111111
0.29653882132834425,0.9525925925925925
0.1796071094480823,0.9511111111111111
0.16089803554724041,0.9511111111111111
0.1412535079513564,0.9511111111111111
0.1216089803554724,0.9511111111111111
0.1216089803554724,0.9525925925925925
0.0832553788587465,0.9511111111111111
0.04396632366697849,0.9511111111111111
0.9953227315247896,0.9496296296296296
0.9953227315247896,0.9525925925925925
0.8989710009354537,0.9496296296296296
0.8980355472404116,0.9511111111111111
0.8989710009354537,0.9525925925925925
0.3938260056127222,0.9496296296296296
0.3938260056127222,0.9525925925925925
0.025257249766136577,0.9496296296296296
0.025257249766136577,0.9525925925925925
0.25818521983161835,0.9466666666666667
0.25818521983161835,0.9540740740740741
0.9176800748362957,0.9422222222222222
0.9186155285313377,0.9422222222222222
0.41347053320860616,0.9422222222222222
0.23854069223573432,0.9422222222222222
0.1992516370439663,0.9422222222222222
0.20018709073900842,0.9422222222222222
0.9953227315247896,0.9407407407407408
0.9953227315247896,0.9422222222222222
0.9962581852198317,0.9422222222222222
0.9962581852198317,0.9407407407407408
0.9766136576239476,0.9407407407407408
0.9756782039289055,0.9422222222222222
0.9766136576239476,0.9422222222222222
0.9569691300280636,0.9407407407407408
0.9569691300280636,0.9422222222222222
0.8980355472404116,0.9407407407407408
0.8980355472404116,0.9422222222222222
0.8989710009354537,0.9422222222222222
0.8989710009354537,0.9407407407407408
0.8793264733395697,0.9407407407407408
0.8793264733395697,0.9422222222222222
0.3938260056127222,0.9407407407407408
0.3938260056127222,0.9422222222222222
0.3545369504209542,0.9407407407407408
0.3545369504209542,0.9422222222222222
0.35547240411599623,0.9422222222222222
0.35547240411599623,0.9407407407407408
0.33582787652011226,0.9407407407407408
0.33582787652011226,0.9422222222222222
0.3161833489242282,0.9407407407407408
0.3161833489242282,0.9422222222222222
0.29653882132834425,0.9407407407407408
0.29653882132834425,0.9422222222222222
0.2768942937324602,0.9407407407407408
0.2768942937324602,0.9422222222222222
0.2778297474275023,0.9422222222222222
0.1796071094480823,0.9407407407407408
0.1796071094480823,0.9422222222222222
0.18054256314312442,0.9422222222222222
0.16089803554724041,0.9407407407407408
0.16089803554724041,0.9422222222222222
0.1412535079513564,0.9407407407407408
0.1412535079513564,0.9422222222222222
0.1216089803554724,0.9407407407407408
0.1216089803554724,0.9422222222222222
0.1225444340505145,0.9422222222222222
0.1019644527595884,0.9407407407407408
0.1019644527595884,0.9422222222222222
0.1028999064546305,0.9422222222222222
0.0832553788587465,0.9407407407407408
0.0832553788587465,0.9422222222222222
0.04864359214218896,0.9407407407407408
0.04864359214218896,0.9422222222222222
0.050514499532273154,0.9451851851851852
0.050514499532273154,0.9481481481481482
0.05144995322731525,0.9496296296296296
0.05144995322731525,0.9525925925925925
0.052385406922357346,0.9540740740740741
0.052385406922357346,0.96
0.05332086061739944,0.9614814814814815
0.05425631431244153,0.96
0.05425631431244153,0.9555555555555556
0.05519176800748363,0.9540740740740741
0.05519176800748363,0.9525925925925925
0.05612722170252572,0.9511111111111111
0.05612722170252572,0.9466666666666667
0.05706267539756782,0.9451851851851852
0.05706267539756782,0.9437037037037037
0.057998129092609915,0.9422222222222222
0.05893358278765201,0.9422222222222222
0.05986903648269411,0.9437037037037037
0.05986903648269411,0.9451851851851852
0.0608044901777362,0.9466666666666667
0.05986903648269411,0.9481481481481482
0.05986903648269411,0.9540740740740741
0.0608044901777362,0.9555555555555556
0.0608044901777362,0.957037037037037
0.05986903648269411,0.9585185185185185
0.05986903648269411,0.9614814814814815
0.06361085126286249,0.9614814814814815
0.06361085126286249,0.96
0.0626753975678204,0.9585185185185185
0.0626753975678204,0.9437037037037037
0.06361085126286249,0.9422222222222222
0.06361085126286249,0.9407407407407408
0.05986903648269411,0.9407407407407408
0.05893358278765201,0.9422222222222222
0.057998129092609915,0.9407407407407408
0.05519176800748363,0.9407407407407408
0.05519176800748363,0.9422222222222222
0.05612722170252572,0.9437037037037037
0.05612722170252572,0.9466666666666667
0.05519176800748363,0.9481481481481482
0.05519176800748363,0.9496296296296296
0.05425631431244153,0.9511111111111111
0.052385406922357346,0.9481481481481482
0.052385406922357346,0.9437037037037037
0.05332086061739944,0.9422222222222222
0.052385406922357346,0.9407407407407408
0.04396632366697849,0.9407407407407408
0.04396632366697849,0.9422222222222222
0.04490177736202058,0.9422222222222222
0.04490177736202058,0.9407407407407408
0.025257249766136577,0.9392592592592592
0.025257249766136577,0.9437037037037037
0.9373246024321796,0.9377777777777778
0.9373246024321796,0.9555555555555556
0.25818521983161835,0.9377777777777778
0.25818521983161835,0.9407407407407408
0.25724976613657624,0.9422222222222222
0.25818521983161835,0.9437037037037037
0.21889616463985032,0.9377777777777778
0.21889616463985032,0.9555555555555556
0.9101964452759589,0.9303703703703704
0.9092609915809168,0.9318518518518518
0.9167446211412535,0.9318518518518518
0.9176800748362957,0.9333333333333333
0.9186155285313377,0.9318518518518518
0.9270346117867165,0.9318518518518518
0.9232927970065482,0.9318518518518518
0.9223573433115061,0.9303703703703704
0.921421889616464,0.9318518518518518
0.9195509822263798,0.9318518518518518
0.9186155285313377,0.9303703703703704
0.9176800748362957,0.9303703703703704
0.9167446211412535,0.9318518518518518
0.9111318989710009,0.9318518518518518
0.31524789522918617,0.9303703703703704
0.31431244153414406,0.9318518518518518
0.3077642656688494,0.9318518518518518
0.31524789522918617,0.9318518518518518
0.3161833489242282,0.9333333333333333
0.31711880261927033,0.9318518518518518
0.3208606173994387,0.9318518518518518
0.3199251637043966,0.9303703703703704
0.31898971000935455,0.9318518518518518
0.31805425631431244,0.9318518518518518
0.31711880261927033,0.9303703703703704
0.29653882132834425,0.9303703703703704
0.29560336763330214,0.9318518518518518
0.29653882132834425,0.9333333333333333
0.29747427502338636,0.9333333333333333
0.2984097287184284,0.9318518518518518
0.3058933582787652,0.9318518518518518
0.2984097287184284,0.9318518518518518
0.29747427502338636,0.9303703703703704
0.2768942937324602,0.9303703703703704
0.27595884003741816,0.9318518518518518
0.2609915809167446,0.9318518518518518
0.27595884003741816,0.9318518518518518
0.2768942937324602,0.9333333333333333
0.2778297474275023,0.9333333333333333
0.27876520112254444,0.9318518518518518
0.293732460243218,0.9318518518518518
0.2862488306828812,0.9318518518518518
0.2853133769878391,0.9303703703703704
0.284377923292797,0.9318518518518518
0.2825070159027128,0.9318518518518518
0.2815715622076707,0.9303703703703704
0.2806361085126286,0.9318518518518518
0.27876520112254444,0.9318518518518518
0.2778297474275023,0.9303703703703704
0.07951356407857811,0.9303703703703704
0.07857811038353602,0.9318518518518518
0.0823199251637044,0.9318518518518518
0.0832553788587465,0.9333333333333333
0.08419083255378859,0.9318518518518518
0.09354536950420954,0.9318518518518518
0.09448082319925163,0.9333333333333333
0.09541627689429373,0.9318518518518518
0.10102899906454631,0.9318518518518518
0.1019644527595884,0.9333333333333333
0.1028999064546305,0.9333333333333333
0.1038353601496726,0.9318518518518518
0.12067352666043031,0.9318518518518518
0.1216089803554724,0.9333333333333333
0.1225444340505145,0.9333333333333333
0.1234798877455566,0.9318518518518518
0.1403180542563143,0.9318518518518518
0.1412535079513564,0.9333333333333333
0.1421889616463985,0.9318518518518518
0.1599625818521983,0.9318518518518518
0.16089803554724041,0.9333333333333333
0.1618334892422825,0.9318518518518518
0.17867165575304023,0.9318518518518518
0.1796071094480823,0.9333333333333333
0.18054256314312442,0.9318518518518518
0.19644527595884004,0.9318518518518518
0.19270346117867165,0.9318518518518518
0.19176800748362957,0.9303703703703704
0.19083255378858746,0.9318518518518518
0.1814780168381665,0.9318518518518518
0.18054256314312442,0.9303703703703704
0.1796071094480823,0.9303703703703704
0.17867165575304023,0.9318518518518518
0.1627689429373246,0.9318518518518518
0.1618334892422825,0.9303703703703704
0.1599625818521983,0.9303703703703704
0.15902712815715622,0.9318518518518518
0.1580916744621141,0.9318518518518518
0.15715622076707203,0.9303703703703704
0.15622076707202995,0.9318518518518518
0.1431244153414406,0.9318518518518518
0.1421889616463985,0.9303703703703704
0.1412535079513564,0.9303703703703704
0.1403180542563143,0.9318518518518518
0.13002806361085126,0.9318518518518518
0.12909260991580918,0.9303703703703704
0.12815715622076707,0.9318518518518518
0.12628624883068287,0.9318518518518518
0.1253507951356408,0.9303703703703704
0.1244153414405987,0.9318518518518518
0.1234798877455566,0.9318518518518518
0.1225444340505145,0.9303703703703704
0.1216089803554724,0.9303703703703704
0.12067352666043031,0.9318518518518518
0.1038353601496726,0.9318518518518518
0.1028999064546305,0.9303703703703704
0.1019644527595884,0.9303703703703704
0.10102899906454631,0.9318518518518518
0.09541627689429373,0.9318518518518518
0.09448082319925163,0.9303703703703704
0.09354536950420954,0.9318518518518518
0.09167446211412535,0.9318518518518518
0.09073900841908325,0.9303703703703704
0.08980355472404115,0.9318518518518518
0.08419083255378859,0.9318518518518518
0.0832553788587465,0.9303703703703704
0.0823199251637044,0.9303703703703704
0.0813844714686623,0.9318518518518518
0.08044901777362021,0.9318518518518518
0.0626753975678204,0.9303703703703704
0.0617399438727783,0.9318518518518518
0.04677268475210477,0.9318518518518518
0.0626753975678204,0.9318518518518518
0.06361085126286249,0.9333333333333333
0.06454630495790459,0.9318518518518518
0.07670720299345182,0.9318518518518518
0.06828811973807297,0.9318518518518518
0.06735266604303088,0.9303703703703704
0.06641721234798878,0.9318518518518518
0.06454630495790459,0.9318518518518518
0.06361085126286249,0.9303703703703704
0.3938260056127222,0.9288888888888889
0.39195509822263797,0.9318518518518518
0.3760523854069224,0.9318518518518518
0.37511693171188026,0.9303703703703704
0.37418147801683815,0.9303703703703704
0.37324602432179604,0.9318518518518518
0.3638914873713751,0.9318518518518518
0.362956033676333,0.9303703703703704
0.36202057998129095,0.9318518518518518
0.35640785781103834,0.9318518518518518
0.35547240411599623,0.9303703703703704
0.3545369504209542,0.9303703703703704
0.35360149672591207,0.9318518518518518
0.33676333021515437,0.9318518518518518
0.33582787652011226,0.9303703703703704
0.33489242282507015,0.9303703703703704
0.33395696913002804,0.9318518518518518
0.33208606173994387,0.9318518518518518
0.33115060804490176,0.9303703703703704
0.3302151543498597,0.9318518518518518
0.3283442469597755,0.9318518518518518
0.3274087932647334,0.9303703703703704
0.3264733395696913,0.9318518518518518
0.32273152478952294,0.9318518518518518
0.33489242282507015,0.9318518518518518
0.33582787652011226,0.9333333333333333
0.33676333021515437,0.9318518518518518
0.35360149672591207,0.9318518518518518
0.3545369504209542,0.9333333333333333
0.35547240411599623,0.9333333333333333
0.35640785781103834,0.9318518518518518
0.37324602432179604,0.9318518518518518
0.37418147801683815,0.9333333333333333
0.37511693171188026,0.9318518518518518
0.3928905519176801,0.9318518518518518
0.3938260056127222,0.9333333333333333
0.39476145930776424,0.9318518518518518
0.41253507951356405,0.9318518518518518
0.41347053320860616,0.9333333333333333
0.41440598690364827,0.9318518518518518
0.4256314312441534,0.9318518518518518
0.42188961646398504,0.9318518518518518
0.42095416276894293,0.9303703703703704
0.4200187090739008,0.9318518518518518
0.41440598690364827,0.9318518518518518
0.41347053320860616,0.9303703703703704
0.41253507951356405,0.9303703703703704
0.411599625818522,0.9318518518518518
0.3985032740879326,0.9318518518518518
0.39756782039289057,0.9303703703703704
0.39663236669784846,0.9318518518518518
0.39569691300280635,0.9318518518518518
0.025257249766136577,0.9288888888888889
0.025257249766136577,0.9348148148148148
0.025257249766136577,0.9333333333333333
0.026192703461178673,0.9318518518518518
0.04303086997193639,0.9318518518518518
0.04396632366697849,0.9333333333333333
0.04490177736202058,0.9333333333333333
0.04490177736202058,0.9303703703703704
0.04396632366697849,0.9303703703703704
0.04303086997193639,0.9318518518518518
0.026192703461178673,0.9318518518518518
0.025257249766136577,0.9303703703703704
0.9373246024321796,0.9274074074074075
0.9373246024321796,0.9288888888888889
0.9354536950420954,0.9318518518518518
0.9289055191768008,0.9318518518518518
0.9363891487371375,0.9318518518518518
0.9373246024321796,0.9333333333333333
0.9373246024321796,0.9348148148148148
0.9373246024321796,0.9333333333333333
0.9382600561272217,0.9318518518518518
0.9560336763330215,0.9318518518518518
0.9569691300280636,0.9333333333333333
0.9579045837231057,0.9318518518518518
0.9747427502338635,0.9318518518518518
0.9756782039289055,0.9333333333333333
0.9766136576239476,0.9333333333333333
0.9775491113189897,0.9318518518518518
0.9943872778297475,0.9318518518518518
0.9953227315247896,0.9333333333333333
0.9962581852198317,0.9333333333333333
0.9971936389148737,0.9318518518518518
0.9990645463049579,0.9318518518518518
0.9990645463049579,0.9303703703703704
0.9981290926099158,0.9318518518518518
0.9971936389148737,0.9318518518518518
0.9962581852198317,0.9303703703703704
0.9953227315247896,0.9303703703703704
0.9943872778297475,0.9318518518518518
0.9775491113189897,0.9318518518518518
0.9766136576239476,0.9303703703703704
0.9756782039289055,0.9303703703703704
0.9747427502338635,0.9318518518518518
0.9728718428437793,0.9318518518518518
0.9719363891487371,0.9303703703703704
0.971000935453695,0.9318518518518518
0.961646398503274,0.9318518518518518
0.960710944808232,0.9303703703703704
0.9597754911131899,0.9318518518518518
0.9579045837231057,0.9318518518518518
0.9569691300280636,0.9303703703703704
0.9560336763330215,0.9303703703703704
0.9550982226379794,0.9318518518518518
0.9391955098222639,0.9318518518518518
0.9373246024321796,0.9288888888888889
0.21889616463985032,0.9274074074074075
0.21889616463985032,0.9303703703703704
0.21796071094480823,0.9318518518518518
0.2011225444340505,0.9318518518518518
0.20018709073900842,0.9303703703703704
0.1992516370439663,0.9303703703703704
0.19831618334892423,0.9318518518518518
0.1992516370439663,0.9333333333333333
0.20018709073900842,0.9333333333333333
0.2011225444340505,0.9318518518518518
0.21796071094480823,0.9318518518518518
0.21889616463985032,0.9333333333333333
0.21889616463985032,0.9348148148148148
0.21889616463985032,0.9333333333333333
0.21983161833489243,0.9318518518518518
0.23760523854069224,0.9318518518518518
0.23854069223573432,0.9333333333333333
0.23947614593077643,0.9318518518518518
0.25631431244153413,0.9318518518518518
0.25818521983161835,0.9348148148148148
0.25818521983161835,0.9333333333333333
0.2591206735266604,0.9318518518518518
0.25818521983161835,0.9303703703703704
0.25818521983161835,0.9274074074074075
0.25818521983161835,0.9288888888888889
0.25631431244153413,0.9318518518518518
0.255378858746492,0.9318518518518518
0.25444340505144997,0.9303703703703704
0.25350795135640786,0.9318518518518518
0.23947614593077643,0.9318518518518518
0.23854069223573432,0.9303703703703704
0.23760523854069224,0.9303703703703704
0.23666978484565013,0.9318518518518518
0.2207670720299345,0.9318518518518518
0.21889616463985032,0.9288888888888889
0.9766136576239476,0.9214814814814815
0.9569691300280636,0.9214814814814815
0.9176800748362957,0.9214814814814815
0.8793264733395697,0.9214814814814815
0.3545369504209542,0.9214814814814815
0.35547240411599623,0.9214814814814815
0.33582787652011226,0.9214814814814815
0.2768942937324602,0.9214814814814815
0.23854069223573432,0.9214814814814815
0.1992516370439663,0.9214814814814815
0.1796071094480823,0.9214814814814815
0.18054256314312442,0.9214814814814815
0.1412535079513564,0.9214814814814815
0.1019644527595884,0.9214814814814815
0.0832553788587465,0.9214814814814815
0.0832553788587465,0.922962962962963
0.06361085126286249,0.9214814814814815
0.04396632366697849,0.9214814814814815
0.04490177736202058,0.9214814814814815
0.9953227315247896,0.92
0.9953227315247896,0.922962962962963
0.9962581852198317,0.9214814814814815
0.8989710009354537,0.92
0.8980355472404116,0.9214814814814815
0.8989710009354537,0.922962962962963
0.3938260056127222,0.92
0.3938260056127222,0.922962962962963
0.3161833489242282,0.92
0.3161833489242282,0.922962962962963
0.29653882132834425,0.92
0.29653882132834425,0.9214814814814815
0.25818521983161835,0.92
0.25724976613657624,0.9214814814814815
0.25818521983161835,0.922962962962963
0.25818521983161835,0.9244444444444444
0.21889616463985032,0.92
0.21889616463985032,0.9244444444444444
0.16089803554724041,0.92
0.16089803554724041,0.9214814814814815
0.1216089803554724,0.92
0.1216089803554724,0.9214814814814815
0.1225444340505145,0.9214814814814815
0.025257249766136577,0.92
0.025257249766136577,0.922962962962963
0.9373246024321796,0.917037037037037
0.9373246024321796,0.9244444444444444
0.25818521983161835,0.917037037037037
0.9766136576239476,0.9111111111111111
0.9766136576239476,0.9125925925925926
0.35547240411599623,0.9111111111111111
0.33582787652011226,0.9111111111111111
0.33582787652011226,0.9125925925925926
0.3161833489242282,0.9111111111111111
0.3161833489242282,0.9125925925925926
0.29653882132834425,0.9111111111111111
0.29653882132834425,0.9125925925925926
0.16089803554724041,0.9111111111111111
0.16089803554724041,0.9125925925925926
0.1216089803554724,0.9111111111111111
0.1216089803554724,0.9125925925925926
0.0832553788587465,0.9111111111111111
0.0832553788587465,0.9125925925925926
0.04396632366697849,0.9111111111111111
0.9953227315247896,0.9096296296296297
0.9953227315247896,0.9125925925925926
0.8989710009354537,0.9096296296296297
0.8980355472404116,0.9111111111111111
0.8980355472404116,0.9125925925925926
0.8989710009354537,0.9125925925925926
0.3938260056127222,0.9096296296296297
0.3938260056127222,0.914074074074074
0.21889616463985032,0.9096296296296297
0.21889616463985032,0.9155555555555556
0.025257249766136577,0.9096296296296297
0.025257249766136577,0.914074074074074
0.9373246024321796,0.9081481481481481
0.9373246024321796,0.914074074074074
0.9766136576239476,0.8918518518518519
0.9953227315247896,0.8903703703703704
0.9953227315247896,0.8918518518518519
0.9766136576239476,0.8711111111111111
0.9766136576239476,0.8725925925925926
0.33582787652011226,0.8711111111111111
0.3161833489242282,0.8711111111111111
0.3161833489242282,0.8725925925925926
0.29653882132834425,0.8711111111111111
0.29653882132834425,0.8725925925925926
0.16089803554724041,0.8711111111111111
0.16089803554724041,0.8725925925925926
0.1216089803554724,0.8711111111111111
0.1216089803554724,0.8725925925925926
0.0832553788587465,0.8711111111111111
0.0832553788587465,0.8725925925925926
0.9953227315247896,0.8696296296296296
0.9953227315247896,0.8740740740740741
0.8989710009354537,0.8696296296296296
0.8980355472404116,0.8711111111111111
0.8980355472404116,0.8725925925925926
0.8989710009354537,0.8725925925925926
0.3938260056127222,0.8696296296296296
0.3938260056127222,0.8725925925925926
0.9373246024321796,0.8681481481481481
0.9373246024321796,0.8770370370370371
0.25818521983161835,0.8666666666666667
0.25818521983161835,0.8755555555555555
0.9569691300280636,0.8622222222222222
0.9176800748362957,0.8622222222222222
0.9186155285313377,0.8622222222222222
0.8793264733395697,0.8622222222222222
0.41347053320860616,0.8622222222222222
0.37418147801683815,0.8622222222222222
0.37511693171188026,0.8622222222222222
0.2768942937324602,0.8622222222222222
0.23854069223573432,0.8622222222222222
0.1992516370439663,0.8622222222222222
0.20018709073900842,0.8622222222222222
0.1796071094480823,0.8622222222222222
0.18054256314312442,0.8622222222222222
0.1412535079513564,0.8622222222222222
0.1019644527595884,0.8622222222222222
0.1028999064546305,0.8622222222222222
0.9953227315247896,0.8607407407407407
0.9953227315247896,0.8622222222222222
0.9962581852198317,0.8622222222222222
0.9766136576239476,0.8607407407407407
0.9766136576239476,0.8622222222222222
0.8980355472404116,0.8607407407407407
0.8980355472404116,0.8622222222222222
0.8989710009354537,0.8622222222222222
0.8989710009354537,0.8607407407407407
0.3938260056127222,0.8607407407407407
0.3928905519176801,0.8622222222222222
0.3938260056127222,0.8637037037037038
0.35547240411599623,0.8607407407407407
0.3545369504209542,0.8622222222222222
0.35547240411599623,0.8622222222222222
0.33582787652011226,0.8607407407407407
0.33582787652011226,0.8622222222222222
0.3161833489242282,0.8607407407407407
0.3161833489242282,0.8622222222222222
0.29653882132834425,0.8607407407407407
0.29653882132834425,0.8622222222222222
0.29747427502338636,0.8622222222222222
0.16089803554724041,0.8607407407407407
0.16089803554724041,0.8622222222222222
0.1216089803554724,0.8607407407407407
0.1216089803554724,0.8622222222222222
0.1225444340505145,0.8622222222222222
0.0832553788587465,0.8607407407407407
0.0823199251637044,0.8622222222222222
0.0832553788587465,0.8622222222222222
0.06361085126286249,0.8607407407407407
0.06361085126286249,0.8622222222222222
0.25818521983161835,0.8592592592592593
0.25818521983161835,0.8607407407407407
0.25724976613657624,0.8622222222222222
0.25818521983161835,0.8637037037037038
0.9569691300280636,0.8518518518518519
0.3545369504209542,0.8518518518518519
0.35547240411599623,0.8518518518518519
0.33582787652011226,0.8518518518518519
0.2768942937324602,0.8518518518518519
0.1992516370439663,0.8518518518518519
0.1796071094480823,0.8518518518518519
0.1412535079513564,0.8518518518518519
0.1216089803554724,0.8518518518518519
0.1019644527595884,0.8518518518518519
0.0832553788587465,0.8518518518518519
0.06361085126286249,0.8518518518518519
0.9953227315247896,0.8503703703703703
0.9953227315247896,0.8533333333333334
0.9766136576239476,0.8503703703703703
0.9766136576239476,0.8518518518518519
0.8989710009354537,0.8503703703703703
0.8980355472404116,0.8518518518518519
0.8989710009354537,0.8533333333333334
0.3938260056127222,0.8503703703703703
0.3938260056127222,0.8533333333333334
0.3161833489242282,0.8503703703703703
0.3161833489242282,0.8518518518518519
0.29653882132834425,0.8503703703703703
0.29653882132834425,0.8533333333333334
0.16089803554724041,0.8503703703703703
0.16089803554724041,0.8518518518518519
0.21889616463985032,0.8488888888888889
0.21889616463985032,0.8770370370370371
0.9766136576239476,0.8414814814814815
0.9569691300280636,0.8414814814814815
0.9176800748362957,0.8414814814814815
0.8793264733395697,0.8414814814814815
0.3545369504209542,0.8414814814814815
0.35547240411599623,0.8414814814814815
0.33582787652011226,0.8414814814814815
0.3161833489242282,0.8414814814814815
0.3161833489242282,0.8429629629629629
0.29653882132834425,0.8414814814814815
0.29653882132834425,0.8429629629629629
0.2768942937324602,0.8414814814814815
0.23854069223573432,0.8414814814814815
0.1992516370439663,0.8414814814814815
0.1796071094480823,0.8414814814814815
0.18054256314312442,0.8414814814814815
0.16089803554724041,0.8414814814814815
0.16089803554724041,0.8429629629629629
0.1412535079513564,0.8414814814814815
0.1216089803554724,0.8414814814814815
0.1216089803554724,0.8429629629629629
0.1225444340505145,0.8414814814814815
0.1019644527595884,0.8414814814814815
0.0832553788587465,0.8414814814814815
0.0832553788587465,0.8429629629629629
0.06361085126286249,0.8414814814814815
0.9953227315247896,0.84
0.9953227315247896,0.8429629629629629
0.9962581852198317,0.8414814814814815
0.8989710009354537,0.84
0.8980355472404116,0.8414814814814815
0.8980355472404116,0.8429629629629629
0.8989710009354537,0.8429629629629629
0.3938260056127222,0.84
0.3938260056127222,0.8429629629629629
0.25818521983161835,0.8385185185185186
0.25818521983161835,0.84
0.25724976613657624,0.8414814814814815
0.25818521983161835,0.8429629629629629
0.25818521983161835,0.8562962962962963
0.9990645463049579,0.8311111111111111
0.9990645463049579,0.8325925925925926
0.990645463049579,0.8311111111111111
0.9915809167446211,0.8325925925925926
0.9925163704396632,0.8325925925925926
0.9925163704396632,0.8311111111111111
0.9869036482694107,0.8311111111111111
0.9878391019644528,0.8325925925925926
0.9887745556594949,0.8325925925925926
0.9887745556594949,0.8311111111111111
0.9831618334892422,0.8311111111111111
0.9840972871842844,0.8325925925925926
0.9850327408793265,0.8311111111111111
0.9794200187090739,0.8311111111111111
0.9794200187090739,0.8325925925925926
0.9812909260991581,0.8325925925925926
0.9812909260991581,0.8311111111111111
0.9672591206735267,0.8311111111111111
0.9681945743685687,0.8325925925925926
0.9691300280636108,0.8325925925925926
0.9691300280636108,0.8311111111111111
0.9635173058933583,0.8311111111111111
0.9644527595884004,0.8325925925925926
0.9653882132834425,0.8325925925925926
0.9653882132834425,0.8311111111111111
0.9597754911131899,0.8311111111111111
0.9597754911131899,0.8325925925925926
0.961646398503274,0.8325925925925926
0.961646398503274,0.8311111111111111
0.9485500467726847,0.8311111111111111
0.9485500467726847,0.8325925925925926
0.9494855004677268,0.8325925925925926
0.950420954162769,0.8311111111111111
0.9438727782974743,0.8311111111111111
0.9448082319925164,0.8325925925925926
0.9457436856875585,0.8325925925925926
0.9457436856875585,0.8311111111111111
0.9401309635173059,0.8311111111111111
0.941066417212348,0.8325925925925926
0.9420018709073901,0.8325925925925926
0.9420018709073901,0.8311111111111111
0.9289055191768008,0.8311111111111111
0.9289055191768008,0.8325925925925926
0.9298409728718429,0.8325925925925926
0.930776426566885,0.8311111111111111
0.9251637043966323,0.8311111111111111
0.9251637043966323,0.8325925925925926
0.9260991580916744,0.8325925925925926
0.9270346117867165,0.8311111111111111
0.921421889616464,0.8311111111111111
0.921421889616464,0.8325925925925926
0.9223573433115061,0.8325925925925926
0.9223573433115061,0.8311111111111111
0.9167446211412535,0.8311111111111111
0.9167446211412535,0.8325925925925926
0.9195509822263798,0.8325925925925926
0.9195509822263798,0.8311111111111111
0.9130028063610851,0.8311111111111111
0.9139382600561272,0.8325925925925926
0.9148737137511693,0.8311111111111111
0.9092609915809168,0.8311111111111111
0.9092609915809168,0.8325925925925926
0.9101964452759589,0.8325925925925926
0.9111318989710009,0.8311111111111111
0.90177736202058,0.8311111111111111
0.90177736202058,0.8325925925925926
0.9027128157156221,0.8325925925925926
0.9036482694106641,0.8311111111111111
0.9045837231057062,0.8311111111111111
0.9055191768007483,0.8325925925925926
0.9064546304957904,0.8325925925925926
0.9073900841908326,0.8311111111111111
0.8868101028999065,0.8311111111111111
0.8868101028999065,0.8325925925925926
0.8877455565949486,0.8325925925925926
0.8877455565949486,0.8311111111111111
0.882132834424696,0.8311111111111111
0.882132834424696,0.8325925925925926
0.883068288119738,0.8325925925925926
0.8840037418147801,0.8311111111111111
0.8746492048643593,0.8311111111111111
0.8746492048643593,0.8325925925925926
0.8755846585594013,0.8325925925925926
0.8765201122544434,0.8311111111111111
0.8774555659494855,0.8311111111111111
0.8783910196445276,0.8325925925925926
0.8802619270346118,0.8325925925925926
0.8802619270346118,0.8311111111111111
0.8699719363891487,0.8311111111111111
0.8709073900841908,0.8325925925925926
0.8718428437792329,0.8325925925925926
0.8718428437792329,0.8311111111111111
0.8662301216089804,0.8311111111111111
0.8671655753040225,0.8325925925925926
0.8681010289990645,0.8325925925925926
0.8681010289990645,0.8311111111111111
0.862488306828812,0.8311111111111111
0.8634237605238541,0.8325925925925926
0.8643592142188962,0.8325925925925926
0.8643592142188962,0.8311111111111111
0.4275023386342376,0.8311111111111111
0.4275023386342376,0.8325925925925926
0.4293732460243218,0.8325925925925926
0.4293732460243218,0.8311111111111111
0.4237605238540692,0.8311111111111111
0.4237605238540692,0.8325925925925926
0.4256314312441534,0.8325925925925926
0.4256314312441534,0.8311111111111111
0.4200187090739008,0.8311111111111111
0.4200187090739008,0.8325925925925926
0.42095416276894293,0.8325925925925926
0.42188961646398504,0.8311111111111111
0.41627689429373244,0.8311111111111111
0.41627689429373244,0.8325925925925926
0.41721234798877455,0.8325925925925926
0.41814780168381666,0.8311111111111111
0.411599625818522,0.8311111111111111
0.411599625818522,0.8325925925925926
0.41440598690364827,0.8325925925925926
0.41440598690364827,0.8311111111111111
0.4087932647333957,0.8311111111111111
0.4087932647333957,0.8325925925925926
0.4097287184284378,0.8325925925925926
0.4097287184284378,0.8311111111111111
0.40505144995322734,0.8311111111111111
0.40505144995322734,0.8325925925925926
0.4059869036482694,0.8325925925925926
0.4059869036482694,0.8311111111111111
0.40037418147801684,0.8311111111111111
0.40037418147801684,0.8325925925925926
0.402245088868101,0.8325925925925926
0.402245088868101,0.8311111111111111
0.39756782039289057,0.8311111111111111
0.39756782039289057,0.8325925925925926
0.3985032740879326,0.8311111111111111
0.3854069223573433,0.8311111111111111
0.3854069223573433,0.8325925925925926
0.3872778297474275,0.8325925925925926
0.3882132834424696,0.8311111111111111
0.3891487371375117,0.8325925925925926
0.3910196445275959,0.8325925925925926
0.3910196445275959,0.8311111111111111
0.3816651075771749,0.8311111111111111
0.3816651075771749,0.8325925925925926
0.38260056127221703,0.8325925925925926
0.38260056127221703,0.8311111111111111
0.36576239476145933,0.8311111111111111
0.36576239476145933,0.8325925925925926
0.3666978484565014,0.8325925925925926
0.3676333021515435,0.8311111111111111
0.3695042095416277,0.8311111111111111
0.37043966323666977,0.8325925925925926
0.3713751169317119,0.8311111111111111
0.372310570626754,0.8311111111111111
0.37324602432179604,0.8325925925925926
0.37511693171188026,0.8325925925925926
0.3760523854069224,0.8311111111111111
0.37698783910196443,0.8311111111111111
0.37792329279700654,0.8325925925925926
0.37885874649204865,0.8325925925925926
0.37885874649204865,0.8311111111111111
0.36108512628624884,0.8311111111111111
0.36202057998129095,0.8325925925925926
0.362956033676333,0.8325925925925926
0.3638914873713751,0.8311111111111111
0.35827876520112256,0.8311111111111111
0.35827876520112256,0.8325925925925926
0.3592142188961646,0.8325925925925926
0.3592142188961646,0.8311111111111111
0.3461178671655753,0.8311111111111111
0.3470533208606174,0.8325925925925926
0.3479887745556595,0.8325925925925926
0.3479887745556595,0.8311111111111111
0.3423760523854069,0.8311111111111111
0.3423760523854069,0.8325925925925926
0.343311506080449,0.8325925925925926
0.34424695977549113,0.8311111111111111
0.33863423760523853,0.8311111111111111
0.33863423760523853,0.8325925925925926
0.34050514499532275,0.8325925925925926
0.34050514499532275,0.8311111111111111
0.3264733395696913,0.8311111111111111
0.3274087932647334,0.8325925925925926
0.3283442469597755,0.8325925925925926
0.3292797006548176,0.8311111111111111
0.3302151543498597,0.8311111111111111
0.33115060804490176,0.8325925925925926
0.33208606173994387,0.8325925925925926
0.33208606173994387,0.8311111111111111
0.32273152478952294,0.8311111111111111
0.323666978484565,0.8325925925925926
0.3246024321796071,0.8325925925925926
0.3246024321796071,0.8311111111111111
0.3115060804490178,0.8311111111111111
0.3115060804490178,0.8325925925925926
0.3124415341440599,0.8325925925925926
0.31337698783910195,0.8311111111111111
0.3077642656688494,0.8311111111111111
0.3077642656688494,0.8325925925925926
0.3086997193638915,0.8325925925925926
0.30963517305893357,0.8311111111111111
0.3030869971936389,0.8311111111111111
0.304022450888681,0.8325925925925926
0.3049579045837231,0.8311111111111111
0.3058933582787652,0.8311111111111111
0.28811973807296537,0.8311111111111111
0.28811973807296537,0.8325925925925926
0.2899906454630496,0.8325925925925926
0.2909260991580917,0.8311111111111111
0.29186155285313375,0.8325925925925926
0.293732460243218,0.8325925925925926
0.293732460243218,0.8311111111111111
0.284377923292797,0.8311111111111111
0.2853133769878391,0.8325925925925926
0.2862488306828812,0.8325925925925926
0.2862488306828812,0.8311111111111111
0.2806361085126286,0.8311111111111111
0.2806361085126286,0.8325925925925926
0.2815715622076707,0.8325925925925926
0.2815715622076707,0.8311111111111111
0.27595884003741816,0.8311111111111111
0.2768942937324602,0.8325925925925926
0.2778297474275023,0.8325925925925926
0.27876520112254444,0.8311111111111111
0.2722170252572498,0.8311111111111111
0.2731524789522919,0.8325925925925926
0.27408793264733394,0.8325925925925926
0.27408793264733394,0.8311111111111111
0.2684752104770814,0.8311111111111111
0.2684752104770814,0.8325925925925926
0.2694106641721235,0.8325925925925926
0.2694106641721235,0.8311111111111111
0.264733395696913,0.8311111111111111
0.264733395696913,0.8325925925925926
0.2666043030869972,0.8325925925925926
0.2666043030869972,0.8311111111111111
0.2609915809167446,0.8311111111111111
0.2609915809167446,0.8325925925925926
0.2628624883068288,0.8325925925925926
0.2628624883068288,0.8311111111111111
0.245088868101029,0.8311111111111111
0.2460243217960711,0.8325925925925926
0.2469597754911132,0.8325925925925926
0.24789522918615528,0.8311111111111111
0.2488306828811974,0.8311111111111111
0.24976613657623947,0.8325925925925926
0.2507015902712816,0.8325925925925926
0.2507015902712816,0.8311111111111111
0.23292797006548177,0.8311111111111111
0.23386342376052385,0.8325925925925926
0.23479887745556596,0.8325925925925926
0.23573433115060805,0.8311111111111111
0.23666978484565013,0.8311111111111111
0.23760523854069224,0.8325925925925926
0.23947614593077643,0.8325925925925926
0.2404115996258185,0.8311111111111111
0.24134705332086062,0.8325925925925926
0.2422825070159027,0.8325925925925926
0.2432179607109448,0.8311111111111111
0.225444340505145,0.8311111111111111
0.22637979420018708,0.8325925925925926
0.2273152478952292,0.8325925925925926
0.22825070159027128,0.8311111111111111
0.2291861552853134,0.8311111111111111
0.23012160898035547,0.8325925925925926
0.23105706267539758,0.8325925925925926
0.23105706267539758,0.8311111111111111
0.2226379794200187,0.8311111111111111
0.2226379794200187,0.8325925925925926
0.2235734331150608,0.8325925925925926
0.2235734331150608,0.8311111111111111
0.21421889616463985,0.8311111111111111
0.21515434985968196,0.8325925925925926
0.21608980355472404,0.8325925925925926
0.21608980355472404,0.8311111111111111
0.21047708138447146,0.8311111111111111
0.21141253507951357,0.8325925925925926
0.21234798877455566,0.8311111111111111
0.20673526660430308,0.8311111111111111
0.20673526660430308,0.8325925925925926
0.2076707202993452,0.8325925925925926
0.20860617399438727,0.8311111111111111
0.19831618334892423,0.8311111111111111
0.19831618334892423,0.8325925925925926
0.2011225444340505,0.8325925925925926
0.20205799812909261,0.8311111111111111
0.2029934518241347,0.8325925925925926
0.2039289055191768,0.8325925925925926
0.2039289055191768,0.8311111111111111
0.19457436856875585,0.8311111111111111
0.19550982226379796,0.8325925925925926
0.19644527595884004,0.8325925925925926
0.19644527595884004,0.8311111111111111
0.19083255378858746,0.8311111111111111
0.19083255378858746,0.8325925925925926
0.19176800748362957,0.8325925925925926
0.19270346117867165,0.8311111111111111
0.1833489242282507,0.8311111111111111
0.1833489242282507,0.8325925925925926
0.1842843779232928,0.8325925925925926
0.18521983161833488,0.8311111111111111
0.186155285313377,0.8311111111111111
0.18709073900841908,0.8325925925925926
0.18896164639850327,0.8325925925925926
0.18896164639850327,0.8311111111111111
0.17867165575304023,0.8311111111111111
0.1796071094480823,0.8325925925925926
0.18054256314312442,0.8325925925925926
0.1814780168381665,0.8311111111111111
0.17118802619270346,0.8311111111111111
0.17212347988774557,0.8325925925925926
0.17305893358278765,0.8325925925925926
0.17399438727782976,0.8311111111111111
0.17586529466791395,0.8311111111111111
0.17680074836295603,0.8325925925925926
0.17680074836295603,0.8311111111111111
0.16744621141253507,0.8311111111111111
0.16838166510757718,0.8325925925925926
0.16931711880261927,0.8325925925925926
0.16931711880261927,0.8311111111111111
0.1637043966323667,0.8311111111111111
0.1637043966323667,0.8325925925925926
0.16557530402245088,0.8325925925925926
0.16557530402245088,0.8311111111111111
0.15622076707202995,0.8311111111111111
0.15622076707202995,0.8325925925925926
0.15715622076707203,0.8325925925925926
0.15715622076707203,0.8311111111111111
0.15154349859681945,0.8311111111111111
0.15247895229186156,0.8325925925925926
0.15341440598690365,0.8325925925925926
0.15341440598690365,0.8311111111111111
0.14780168381665107,0.8311111111111111
0.14873713751169318,0.8325925925925926
0.14967259120673526,0.8325925925925926
0.14967259120673526,0.8311111111111111
0.13657623947614594,0.8311111111111111
0.13751169317118803,0.8325925925925926
0.1384471468662301,0.8311111111111111
0.13283442469597756,0.8311111111111111
0.13283442469597756,0.8325925925925926
0.13376987839101964,0.8325925925925926
0.13470533208606175,0.8311111111111111
0.1253507951356408,0.8311111111111111
0.1253507951356408,0.8325925925925926
0.12628624883068287,0.8325925925925926
0.12722170252572498,0.8311111111111111
0.12815715622076707,0.8311111111111111
0.12909260991580918,0.8325925925925926
0.13002806361085126,0.8325925925925926
0.13002806361085126,0.8311111111111111
0.11693171188026193,0.8311111111111111
0.11786716557530402,0.8325925925925926
0.11880261927034612,0.8325925925925926
0.11880261927034612,0.8311111111111111
0.11318989710009354,0.8311111111111111
0.11412535079513564,0.8325925925925926
0.11506080449017773,0.8325925925925926
0.11506080449017773,0.8311111111111111
0.10944808231992516,0.8311111111111111
0.11038353601496725,0.8325925925925926
0.11131898971000935,0.8325925925925926
0.11131898971000935,0.8311111111111111
0.10570626753975679,0.8311111111111111
0.10570626753975679,0.8325925925925926
0.10664172123479888,0.8325925925925926
0.10757717492984098,0.8311111111111111
0.09728718428437792,0.8311111111111111
0.09822263797942002,0.8325925925925926
0.09915809167446211,0.8325925925925926
0.09915809167446211,0.8311111111111111
0.09354536950420954,0.8311111111111111
0.09448082319925163,0.8325925925925926
0.09541627689429373,0.8325925925925926
0.09541627689429373,0.8311111111111111
0.08606173994387278,0.8311111111111111
0.08606173994387278,0.8325925925925926
0.08793264733395698,0.8325925925925926
0.08886810102899906,0.8311111111111111
0.08980355472404115,0.8325925925925926
0.09073900841908325,0.8325925925925926
0.09167446211412535,0.8311111111111111
0.07483629560336763,0.8311111111111111
0.07483629560336763,0.8325925925925926
0.07577174929840973,0.8325925925925926
0.07670720299345182,0.8311111111111111
0.07015902712815715,0.8311111111111111
0.07109448082319925,0.8325925925925926
0.07202993451824134,0.8325925925925926
0.07202993451824134,0.8311111111111111
0.05893358278765201,0.8311111111111111
0.05893358278765201,0.8325925925925926
0.05986903648269411,0.8325925925925926
0.0608044901777362,0.8311111111111111
0.05519176800748363,0.8311111111111111
0.05519176800748363,0.8325925925925926
0.05612722170252572,0.8325925925925926
0.05612722170252572,0.8311111111111111
0.05144995322731525,0.8311111111111111
0.05144995322731525,0.8325925925925926
0.052385406922357346,0.8325925925925926
0.052385406922357346,0.8311111111111111
0.9953227315247896,0.8296296296296296
0.9943872778297475,0.8311111111111111
0.9943872778297475,0.8325925925925926
0.9953227315247896,0.8340740740740741
0.9962581852198317,0.8325925925925926
0.9971936389148737,0.8325925925925926
0.9971936389148737,0.8311111111111111
0.9962581852198317,0.8311111111111111
0.9766136576239476,0.8296296296296296
0.9756782039289055,0.8311111111111111
0.971000935453695,0.8311111111111111
0.9719363891487371,0.8325925925925926
0.9728718428437793,0.8325925925925926
0.9738072965388214,0.8311111111111111
0.9747427502338635,0.8311111111111111
0.9766136576239476,0.8340740740740741
0.9766136576239476,0.8325925925925926
0.9775491113189897,0.8311111111111111
0.9569691300280636,0.8296296296296296
0.9560336763330215,0.8311111111111111
0.9522918615528532,0.8311111111111111
0.9522918615528532,0.8325925925925926
0.9532273152478953,0.8325925925925926
0.9541627689429373,0.8311111111111111
0.9550982226379794,0.8311111111111111
0.9560336763330215,0.8325925925925926
0.9579045837231057,0.8325925925925926
0.9579045837231057,0.8311111111111111
0.8980355472404116,0.8296296296296296
0.8971000935453695,0.8311111111111111
0.8896164639850327,0.8311111111111111
0.8905519176800748,0.8325925925925926
0.8914873713751169,0.8325925925925926
0.892422825070159,0.8311111111111111
0.8933582787652011,0.8311111111111111
0.8942937324602432,0.8325925925925926
0.8952291861552854,0.8325925925925926
0.8961646398503275,0.8311111111111111
0.8971000935453695,0.8311111111111111
0.8980355472404116,0.8325925925925926
0.8980355472404116,0.8340740740740741
0.8989710009354537,0.8340740740740741
0.8989710009354537,0.8325925925925926
0.8999064546304958,0.8311111111111111
0.8989710009354537,0.8296296296296296
0.3938260056127222,0.8296296296296296
0.3928905519176801,0.8311111111111111
0.3928905519176801,0.8325925925925926
0.3938260056127222,0.8340740740740741
0.39476145930776424,0.8325925925925926
0.39476145930776424,0.8311111111111111
0.3545369504209542,0.8296296296296296
0.35360149672591207,0.8311111111111111
0.3507951356407858,0.8311111111111111
0.3507951356407858,0.8325925925925926
0.3517305893358279,0.8325925925925926
0.35266604303086996,0.8311111111111111
0.35360149672591207,0.8325925925925926
0.35547240411599623,0.8325925925925926
0.35640785781103834,0.8311111111111111
0.35547240411599623,0.8296296296296296
0.33582787652011226,0.8296296296296296
0.33489242282507015,0.8311111111111111
0.33395696913002804,0.8311111111111111
0.33489242282507015,0.8325925925925926
0.33676333021515437,0.8325925925925926
0.33676333021515437,0.8311111111111111
0.3161833489242282,0.8296296296296296
0.31524789522918617,0.8311111111111111
0.31524789522918617,0.8325925925925926
0.3161833489242282,0.8340740740740741
0.31805425631431244,0.8311111111111111
0.31898971000935455,0.8311111111111111
0.3199251637043966,0.8325925925925926
0.3208606173994387,0.8325925925925926
0.3208606173994387,0.8311111111111111
0.31711880261927033,0.8311111111111111
0.29653882132834425,0.8296296296296296
0.29560336763330214,0.8311111111111111
0.29560336763330214,0.8325925925925926
0.29653882132834425,0.8340740740740741
0.2984097287184284,0.8311111111111111
0.2993451824134705,0.8311111111111111
0.30028063610851263,0.8325925925925926
0.30121608980355474,0.8325925925925926
0.30121608980355474,0.8311111111111111
0.29747427502338636,0.8311111111111111
0.16089803554724041,0.8296296296296296
0.1599625818521983,0.8311111111111111
0.15902712815715622,0.8311111111111111
0.16089803554724041,0.8340740740740741
0.1618334892422825,0.8325925925925926
0.1618334892422825,0.8311111111111111
0.1412535079513564,0.8296296296296296
0.1403180542563143,0.8311111111111111
0.1403180542563143,0.8325925925925926
0.1421889616463985,0.8325925925925926
0.1431244153414406,0.8311111111111111
0.14405986903648269,0.8311111111111111
0.1449953227315248,0.8325925925925926
0.14593077642656688,0.8325925925925926
0.14593077642656688,0.8311111111111111
0.1421889616463985,0.8311111111111111
0.1216089803554724,0.8296296296296296
0.12067352666043031,0.8311111111111111
0.12067352666043031,0.8325925925925926
0.1216089803554724,0.8340740740740741
0.1234798877455566,0.8311111111111111
0.1225444340505145,0.8311111111111111
0.1019644527595884,0.8296296296296296
0.10102899906454631,0.8311111111111111
0.1019644527595884,0.8325925925925926
0.1028999064546305,0.8325925925925926
0.1038353601496726,0.8311111111111111
0.1028999064546305,0.8311111111111111
0.0832553788587465,0.8296296296296296
0.0823199251637044,0.8311111111111111
0.07857811038353602,0.8311111111111111
0.07857811038353602,0.8325925925925926
0.07951356407857811,0.8325925925925926
0.08044901777362021,0.8311111111111111
0.0813844714686623,0.8311111111111111
0.0832553788587465,0.8340740740740741
0.08419083255378859,0.8325925925925926
0.08419083255378859,0.8311111111111111
0.06361085126286249,0.8296296296296296
0.0626753975678204,0.8311111111111111
0.0626753975678204,0.8325925925925926
0.06454630495790459,0.8325925925925926
0.06548175865294668,0.8311111111111111
0.06641721234798878,0.8325925925925926
0.06735266604303088,0.8325925925925926
0.06828811973807297,0.8311111111111111
0.06454630495790459,0.8311111111111111
0.9373246024321796,0.8281481481481482
0.9373246024321796,0.8296296296296296
0.9363891487371375,0.8311111111111111
0.9326473339569691,0.8311111111111111
0.9326473339569691,0.8325925925925926
0.9335827876520112,0.8325925925925926
0.9345182413470533,0.8311111111111111
0.9354536950420954,0.8311111111111111
0.9373246024321796,0.8340740740740741
0.9373246024321796,0.8637037037037038
0.9373246024321796,0.8340740740740741
0.9382600561272217,0.8325925925925926
0.9382600561272217,0.8311111111111111
0.9373246024321796,0.8296296296296296
0.9176800748362957,0.8222222222222222
0.9186155285313377,0.8222222222222222
0.8793264733395697,0.8222222222222222
0.41253507951356405,0.8222222222222222
0.41347053320860616,0.8222222222222222
0.37418147801683815,0.8222222222222222
0.37511693171188026,0.8222222222222222
0.2768942937324602,0.8222222222222222
0.2778297474275023,0.8222222222222222
0.23854069223573432,0.8222222222222222
0.1992516370439663,0.8222222222222222
0.20018709073900842,0.8222222222222222
0.1796071094480823,0.8222222222222222
0.18054256314312442,0.8222222222222222
0.1412535079513564,0.8222222222222222
0.1019644527595884,0.8222222222222222
0.1028999064546305,0.8222222222222222
0.9953227315247896,0.8207407407407408
0.9953227315247896,0.8222222222222222
0.9962581852198317,0.8222222222222222
0.9766136576239476,0.8207407407407408
0.9756782039289055,0.8222222222222222
0.9766136576239476,0.8222222222222222
0.9569691300280636,0.8207407407407408
0.9569691300280636,0.8222222222222222
0.9373246024321796,0.8207407407407408
0.9373246024321796,0.8251851851851851
0.8980355472404116,0.8207407407407408
0.8980355472404116,0.8222222222222222
0.8989710009354537,0.8222222222222222
0.8989710009354537,0.8207407407407408
0.3938260056127222,0.8207407407407408
0.3938260056127222,0.8237037037037037
0.3545369504209542,0.8207407407407408
0.3545369504209542,0.8222222222222222
0.35547240411599623,0.8222222222222222
0.35547240411599623,0.8207407407407408
0.33582787652011226,0.8207407407407408
0.33582787652011226,0.8222222222222222
0.3161833489242282,0.8207407407407408
0.3161833489242282,0.8222222222222222
0.29653882132834425,0.8207407407407408
0.29653882132834425,0.8222222222222222
0.29747427502338636,0.8222222222222222
0.21889616463985032,0.8207407407407408
0.21889616463985032,0.8296296296296296
0.21796071094480823,0.8311111111111111
0.21796071094480823,0.8325925925925926
0.21889616463985032,0.8340740740740741
0.21889616463985032,0.8444444444444444
0.21889616463985032,0.8340740740740741
0.21983161833489243,0.8325925925925926
0.21983161833489243,0.8311111111111111
0.21889616463985032,0.8296296296296296
0.16089803554724041,0.8207407407407408
0.16089803554724041,0.8222222222222222
0.1216089803554724,0.8207407407407408
0.1216089803554724,0.8222222222222222
0.1225444340505145,0.8222222222222222
0.0832553788587465,0.8207407407407408
0.0832553788587465,0.8222222222222222
0.06361085126286249,0.8207407407407408
0.06361085126286249,0.8222222222222222
0.25818521983161835,0.8177777777777778
0.25818521983161835,0.8207407407407408
0.25724976613657624,0.8222222222222222
0.25818521983161835,0.8237037037037037
0.25818521983161835,0.8296296296296296
0.25724976613657624,0.8311111111111111
0.25350795135640786,0.8311111111111111
0.25350795135640786,0.8325925925925926
0.25444340505144997,0.8325925925925926
0.255378858746492,0.8311111111111111
0.25631431244153413,0.8311111111111111
0.25818521983161835,0.8340740740740741
0.25818521983161835,0.8355555555555556
0.25818521983161835,0.8340740740740741
0.2591206735266604,0.8325925925925926
0.2591206735266604,0.8311111111111111
0.25818521983161835,0.8296296296296296
0.9766136576239476,0.8118518518518518
0.9569691300280636,0.8118518518518518
0.3545369504209542,0.8118518518518518
0.35547240411599623,0.8118518518518518
0.33582787652011226,0.8118518518518518
0.1796071094480823,0.8118518518518518
0.16089803554724041,0.8118518518518518
0.1412535079513564,0.8118518518518518
0.1216089803554724,0.8118518518518518
0.06361085126286249,0.8118518518518518
0.9953227315247896,0.8103703703703704
0.9953227315247896,0.8133333333333334
0.8980355472404116,0.8103703703703704
0.8980355472404116,0.8118518518518518
0.8989710009354537,0.8133333333333334
0.8989710009354537,0.8103703703703704
0.3938260056127222,0.8103703703703704
0.3938260056127222,0.8133333333333334
0.3161833489242282,0.8103703703703704
0.3161833489242282,0.8133333333333334
0.29653882132834425,0.8103703703703704
0.29653882132834425,0.8118518518518518
0.0832553788587465,0.8103703703703704
0.0832553788587465,0.8118518518518518
0.21889616463985032,0.8088888888888889
0.21889616463985032,0.8177777777777778
0.9766136576239476,0.8014814814814815
0.9569691300280636,0.8014814814814815
0.9176800748362957,0.8014814814814815
0.8793264733395697,0.8014814814814815
0.37418147801683815,0.8014814814814815
0.3545369504209542,0.8014814814814815
0.35547240411599623,0.8014814814814815
0.33582787652011226,0.8014814814814815
0.2768942937324602,0.8014814814814815
0.1992516370439663,0.8014814814814815
0.1796071094480823,0.8014814814814815
0.16089803554724041,0.8014814814814815
0.1412535079513564,0.8014814814814815
0.1216089803554724,0.8014814814814815
0.1216089803554724,0.802962962962963
0.1225444340505145,0.8014814814814815
0.1019644527595884,0.8014814814814815
0.0832553788587465,0.8014814814814815
0.0832553788587465,0.802962962962963
0.06361085126286249,0.8014814814814815
0.9953227315247896,0.8
0.9953227315247896,0.802962962962963
0.8989710009354537,0.8
0.8980355472404116,0.8014814814814815
0.8980355472404116,0.802962962962963
0.8989710009354537,0.802962962962963
0.3938260056127222,0.8
0.3938260056127222,0.802962962962963
0.3161833489242282,0.8
0.3161833489242282,0.802962962962963
0.29653882132834425,0.8
0.29653882132834425,0.802962962962963
0.25818521983161835,0.8
0.25724976613657624,0.8014814814814815
0.25818521983161835,0.802962962962963
0.25818521983161835,0.8148148148148148
0.04396632366697849,0.7925925925925926
0.9953227315247896,0.7911111111111111
0.9953227315247896,0.7925925925925926
0.9766136576239476,0.7911111111111111
0.9766136576239476,0.7925925925925926
0.8980355472404116,0.7911111111111111
0.8980355472404116,0.7925925925925926
0.8989710009354537,0.7925925925925926
0.8989710009354537,0.7911111111111111
0.35547240411599623,0.7911111111111111
0.3161833489242282,0.7911111111111111
0.3161833489242282,0.7925925925925926
0.29653882132834425,0.7911111111111111
0.29653882132834425,0.7925925925925926
0.16089803554724041,0.7911111111111111
0.16089803554724041,0.7925925925925926
0.1216089803554724,0.7911111111111111
0.1216089803554724,0.7925925925925926
0.0832553788587465,0.7911111111111111
0.0832553788587465,0.7925925925925926
0.3938260056127222,0.7896296296296297
0.3938260056127222,0.7925925925925926
0.025257249766136577,0.7896296296296297
0.025257249766136577,0.794074074074074
0.25818521983161835,0.7866666666666666
0.25818521983161835,0.797037037037037
0.9766136576239476,0.7718518518518519
0.3545369504209542,0.7718518518518519
0.35547240411599623,0.7718518518518519
0.33582787652011226,0.7718518518518519
0.3161833489242282,0.7718518518518519
0.3161833489242282,0.7733333333333333
0.1216089803554724,0.7718518518518519
0.0832553788587465,0.7718518518518519
0.06361085126286249,0.7718518518518519
0.04396632366697849,0.7718518518518519
0.9953227315247896,0.7703703703703704
0.9953227315247896,0.7733333333333333
0.8989710009354537,0.7703703703703704
0.8980355472404116,0.7718518518518519
0.8989710009354537,0.7733333333333333
0.3938260056127222,0.7703703703703704
0.3938260056127222,0.7733333333333333
0.29653882132834425,0.7703703703703704
0.29653882132834425,0.7718518518518519
0.16089803554724041,0.7703703703703704
0.16089803554724041,0.7718518518518519
0.025257249766136577,0.7703703703703704
0.025257249766136577,0.7733333333333333
0.9766136576239476,0.7614814814814815
0.9766136576239476,0.762962962962963
0.9569691300280636,0.7614814814814815
0.9176800748362957,0.7614814814814815
0.8793264733395697,0.7614814814814815
0.3545369504209542,0.7614814814814815
0.35547240411599623,0.7614814814814815
0.33582787652011226,0.7614814814814815
0.29653882132834425,0.7614814814814815
0.29653882132834425,0.762962962962963
0.2768942937324602,0.7614814814814815
0.1992516370439663,0.7614814814814815
0.1796071094480823,0.7614814814814815
0.16089803554724041,0.7614814814814815
0.16089803554724041,0.762962962962963
0.1412535079513564,0.7614814814814815
0.1216089803554724,0.7614814814814815
0.1216089803554724,0.762962962962963
0.1225444340505145,0.7614814814814815
0.1019644527595884,0.7614814814814815
0.0832553788587465,0.7614814814814815
0.0832553788587465,0.762962962962963
0.06361085126286249,0.7614814814814815
0.04396632366697849,0.7614814814814815
0.04396632366697849,0.762962962962963
0.04490177736202058,0.7614814814814815
0.9953227315247896,0.76
0.9953227315247896,0.762962962962963
0.9962581852198317,0.7614814814814815
0.8989710009354537,0.76
0.8980355472404116,0.7614814814814815
0.8980355472404116,0.762962962962963
0.8989710009354537,0.762962962962963
0.3938260056127222,0.76
0.3938260056127222,0.762962962962963
0.3161833489242282,0.76
0.3161833489242282,0.762962962962963
0.21889616463985032,0.76
0.21889616463985032,0.7762962962962963
0.025257249766136577,0.76
0.025257249766136577,0.762962962962963
0.25818521983161835,0.7585185185185185
0.25818521983161835,0.7762962962962963
0.9953227315247896,0.7511111111111111
0.9953227315247896,0.7525925925925926
0.9766136576239476,0.7511111111111111
0.9766136576239476,0.7525925925925926
0.8980355472404116,0.7511111111111111
0.8980355472404116,0.7525925925925926
0.8989710009354537,0.7525925925925926
0.8989710009354537,0.7511111111111111
0.3938260056127222,0.7511111111111111
0.3938260056127222,0.7525925925925926
0.35547240411599623,0.7511111111111111
0.3545369504209542,0.7525925925925926
0.35547240411599623,0.7525925925925926
0.33582787652011226,0.7511111111111111
0.33582787652011226,0.7525925925925926
0.3161833489242282,0.7511111111111111
0.3161833489242282,0.7525925925925926
0.29653882132834425,0.7511111111111111
0.29653882132834425,0.7525925925925926
0.16089803554724041,0.7511111111111111
0.16089803554724041,0.7525925925925926
0.1216089803554724,0.7511111111111111
0.1216089803554724,0.7525925925925926
0.0832553788587465,0.7511111111111111
0.0832553788587465,0.7525925925925926
0.04396632366697849,0.7511111111111111
0.04396632366697849,0.7525925925925926
0.25818521983161835,0.7496296296296296
0.25818521983161835,0.7555555555555555
0.21889616463985032,0.7496296296296296
0.21889616463985032,0.7555555555555555
0.025257249766136577,0.7496296296296296
0.025257249766136577,0.7540740740740741
0.9766136576239476,0.7422222222222222
0.9569691300280636,0.7422222222222222
0.9176800748362957,0.7422222222222222
0.9186155285313377,0.7422222222222222
0.8793264733395697,0.7422222222222222
0.41253507951356405,0.7422222222222222
0.41347053320860616,0.7422222222222222
0.37418147801683815,0.7422222222222222
0.37511693171188026,0.7422222222222222
0.3545369504209542,0.7422222222222222
0.35547240411599623,0.7422222222222222
0.33582787652011226,0.7422222222222222
0.2768942937324602,0.7422222222222222
0.23854069223573432,0.7422222222222222
0.1992516370439663,0.7422222222222222
0.20018709073900842,0.7422222222222222
0.1796071094480823,0.7422222222222222
0.18054256314312442,0.7422222222222222
0.1412535079513564,0.7422222222222222
0.1019644527595884,0.7422222222222222
0.06361085126286249,0.7422222222222222
0.04396632366697849,0.7422222222222222
0.04490177736202058,0.7422222222222222
0.9953227315247896,0.7407407407407407
0.9953227315247896,0.7437037037037038
0.9962581852198317,0.7422222222222222
0.8980355472404116,0.7407407407407407
0.8980355472404116,0.7422222222222222
0.8989710009354537,0.7437037037037038
0.8989710009354537,0.7407407407407407
0.3938260056127222,0.7407407407407407
0.3928905519176801,0.7422222222222222
0.3938260056127222,0.7437037037037038
0.3161833489242282,0.7407407407407407
0.3161833489242282,0.7422222222222222
0.29653882132834425,0.7407407407407407
0.29653882132834425,0.7422222222222222
0.29747427502338636,0.7422222222222222
0.16089803554724041,0.7407407407407407
0.16089803554724041,0.7422222222222222
0.1216089803554724,0.7407407407407407
0.1216089803554724,0.7422222222222222
0.1225444340505145,0.7422222222222222
0.0832553788587465,0.7407407407407407
0.0832553788587465,0.7422222222222222
0.25818521983161835,0.7392592592592593
0.25818521983161835,0.7407407407407407
0.25724976613657624,0.7422222222222222
0.25818521983161835,0.7437037037037038
0.25818521983161835,0.7466666666666667
0.025257249766136577,0.7392592592592593
0.025257249766136577,0.7437037037037038
0.990645463049579,0.7318518518518519
0.9925163704396632,0.7318518518518519
0.9869036482694107,0.7318518518518519
0.9887745556594949,0.7318518518518519
0.971000935453695,0.7318518518518519
0.9719363891487371,0.7333333333333333
0.9728718428437793,0.7318518518518519
0.9672591206735267,0.7318518518518519
0.9691300280636108,0.7318518518518519
0.9635173058933583,0.7318518518518519
0.9653882132834425,0.7318518518518519
0.9513564078578111,0.7318518518518519
0.9541627689429373,0.7318518518518519
0.9289055191768008,0.7318518518518519
0.9345182413470533,0.7318518518518519
0.9251637043966323,0.7318518518518519
0.9270346117867165,0.7318518518518519
0.921421889616464,0.7318518518518519
0.9232927970065482,0.7318518518518519
0.9092609915809168,0.7318518518518519
0.9148737137511693,0.7318518518518519
0.9055191768007483,0.7318518518518519
0.9073900841908326,0.7318518518518519
0.90177736202058,0.7318518518518519
0.9036482694106641,0.7318518518518519
0.8896164639850327,0.7318518518518519
0.8952291861552854,0.7318518518518519
0.8858746492048644,0.7318518518518519
0.8877455565949486,0.7318518518518519
0.882132834424696,0.7318518518518519
0.8840037418147801,0.7318518518518519
0.4275023386342376,0.7318518518518519
0.4293732460243218,0.7318518518518519
0.4237605238540692,0.7318518518518519
0.4256314312441534,0.7318518518518519
0.4200187090739008,0.7318518518518519
0.42188961646398504,0.7318518518518519
0.41627689429373244,0.7318518518518519
0.41814780168381666,0.7318518518518519
0.4078578110383536,0.7318518518518519
0.4097287184284378,0.7318518518518519
0.40411599625818523,0.7318518518518519
0.4059869036482694,0.7318518518518519
0.40037418147801684,0.7318518518518519
0.402245088868101,0.7318518518518519
0.3695042095416277,0.7318518518518519
0.3713751169317119,0.7318518518518519
0.36202057998129095,0.7318518518518519
0.3676333021515435,0.7318518518518519
0.35827876520112256,0.7318518518518519
0.3592142188961646,0.7318518518518519
0.3461178671655753,0.7318518518518519
0.3489242282507016,0.7318518518518519
0.32273152478952294,0.7318518518518519
0.33208606173994387,0.7318518518518519
0.31898971000935455,0.7318518518518519
0.3199251637043966,0.7333333333333333
0.3208606173994387,0.7318518518518519
0.3115060804490178,0.7318518518518519
0.31337698783910195,0.7318518518518519
0.3077642656688494,0.7318518518518519
0.30963517305893357,0.7318518518518519
0.29186155285313375,0.7318518518518519
0.293732460243218,0.7318518518518519
0.28811973807296537,0.7318518518518519
0.2899906454630496,0.7318518518518519
0.284377923292797,0.7318518518518519
0.2862488306828812,0.7318518518518519
0.2806361085126286,0.7318518518518519
0.2815715622076707,0.7318518518518519
0.2722170252572498,0.7318518518518519
0.27408793264733394,0.7318518518518519
0.2609915809167446,0.7318518518518519
0.27034611786716556,0.7318518518518519
0.25350795135640786,0.7318518518518519
0.25444340505144997,0.7318518518518519
0.2488306828811974,0.7318518518518519
0.2507015902712816,0.7318518518518519
0.245088868101029,0.7318518518518519
0.2469597754911132,0.7318518518518519
0.24134705332086062,0.7318518518518519
0.2432179607109448,0.7318518518518519
0.225444340505145,0.7318518518518519
0.23573433115060805,0.7318518518518519
0.19457436856875585,0.7318518518518519
0.19644527595884004,0.7318518518518519
0.19083255378858746,0.7318518518518519
0.19176800748362957,0.7333333333333333
0.19270346117867165,0.7318518518518519
0.18709073900841908,0.7318518518518519
0.18896164639850327,0.7318518518518519
0.1833489242282507,0.7318518518518519
0.18521983161833488,0.7318518518518519
0.17118802619270346,0.7318518518518519
0.17680074836295603,0.7318518518518519
0.16744621141253507,0.7318518518518519
0.16931711880261927,0.7318518518518519
0.1637043966323667,0.7318518518518519
0.16557530402245088,0.7318518518518519
0.14780168381665107,0.7318518518518519
0.15715622076707203,0.7318518518518519
0.13189897100093545,0.7318518518518519
0.13470533208606175,0.7318518518518519
0.12909260991580918,0.7318518518518519
0.13002806361085126,0.7318518518518519
0.11693171188026193,0.7318518518518519
0.11880261927034612,0.7318518518518519
0.11318989710009354,0.7318518518518519
0.11506080449017773,0.7318518518518519
0.10944808231992516,0.7318518518518519
0.11131898971000935,0.7318518518518519
0.10570626753975679,0.7318518518518519
0.10757717492984098,0.7318518518518519
0.08980355472404115,0.7318518518518519
0.09167446211412535,0.7318518518518519
0.08606173994387278,0.7318518518518519
0.08793264733395698,0.7318518518518519
0.07857811038353602,0.7318518518518519
0.07951356407857811,0.7318518518518519
0.07390084190832553,0.7318518518518519
0.07670720299345182,0.7318518518518519
0.07015902712815715,0.7318518518518519
0.07202993451824134,0.7318518518518519
0.05893358278765201,0.7318518518518519
0.0608044901777362,0.7318518518518519
0.04677268475210477,0.7318518518518519
0.05706267539756782,0.7318518518518519
0.03928905519176801,0.7318518518518519
0.0411599625818522,0.7318518518518519
0.03554724041159962,0.7318518518518519
0.037418147801683815,0.7318518518518519
0.9990645463049579,0.7303703703703703
0.9990645463049579,0.7333333333333333
0.9953227315247896,0.7303703703703703
0.9943872778297475,0.7318518518518519
0.9953227315247896,0.7333333333333333
0.9953227315247896,0.7348148148148148
0.9971936389148737,0.7318518518518519
0.9962581852198317,0.7303703703703703
0.9756782039289055,0.7303703703703703
0.9747427502338635,0.7318518518518519
0.9756782039289055,0.7333333333333333
0.9766136576239476,0.7333333333333333
0.9775491113189897,0.7318518518518519
0.9850327408793265,0.7318518518518519
0.9775491113189897,0.7318518518518519
0.9766136576239476,0.7303703703703703
0.9569691300280636,0.7303703703703703
0.9560336763330215,0.7318518518518519
0.9560336763330215,0.7333333333333333
0.9569691300280636,0.7333333333333333
0.9579045837231057,0.7318518518518519
0.961646398503274,0.7318518518518519
0.9579045837231057,0.7318518518518519
0.9176800748362957,0.7303703703703703
0.9167446211412535,0.7318518518518519
0.9176800748362957,0.7333333333333333
0.9186155285313377,0.7333333333333333
0.9195509822263798,0.7318518518518519
0.9186155285313377,0.7303703703703703
0.8980355472404116,0.7303703703703703
0.8971000935453695,0.7318518518518519
0.8980355472404116,0.7333333333333333
0.8989710009354537,0.7333333333333333
0.8999064546304958,0.7318518518518519
0.8989710009354537,0.7303703703703703
0.8783910196445276,0.7303703703703703
0.8774555659494855,0.7318518518518519
0.8662301216089804,0.7318518518518519
0.8774555659494855,0.7318518518518519
0.8783910196445276,0.7333333333333333
0.8793264733395697,0.7333333333333333
0.8802619270346118,0.7318518518518519
0.8793264733395697,0.7303703703703703
0.41253507951356405,0.7303703703703703
0.411599625818522,0.7318518518518519
0.41253507951356405,0.7333333333333333
0.41347053320860616,0.7333333333333333
0.41440598690364827,0.7318518518518519
0.41347053320860616,0.7303703703703703
0.39756782039289057,0.7303703703703703
0.39663236669784846,0.7318518518518519
0.39756782039289057,0.7333333333333333
0.3985032740879326,0.7318518518518519
0.37418147801683815,0.7303703703703703
0.37324602432179604,0.7318518518518519
0.37418147801683815,0.7333333333333333
0.37511693171188026,0.7333333333333333
0.3760523854069224,0.7318518518518519
0.38353601496725914,0.7318518518518519
0.37511693171188026,0.7318518518518519
0.3545369504209542,0.7303703703703703
0.35360149672591207,0.7318518518518519
0.3507951356407858,0.7318518518518519
0.35360149672591207,0.7318518518518519
0.3545369504209542,0.7333333333333333
0.35547240411599623,0.7333333333333333
0.35640785781103834,0.7318518518518519
0.35547240411599623,0.7303703703703703
0.33489242282507015,0.7303703703703703
0.33395696913002804,0.7318518518518519
0.33489242282507015,0.7333333333333333
0.33582787652011226,0.7333333333333333
0.33676333021515437,0.7318518518518519
0.34424695977549113,0.7318518518518519
0.33676333021515437,0.7318518518518519
0.33582787652011226,0.7303703703703703
0.3161833489242282,0.7303703703703703
0.31524789522918617,0.7318518518518519
0.31524789522918617,0.7333333333333333
0.3161833489242282,0.7333333333333333
0.31711880261927033,0.7318518518518519
0.29653882132834425,0.7303703703703703
0.29560336763330214,0.7318518518518519
0.29653882132834425,0.7333333333333333
0.29747427502338636,0.7333333333333333
0.2984097287184284,0.7318518518518519
0.3058933582787652,0.7318518518518519
0.2984097287184284,0.7318518518518519
0.29747427502338636,0.7303703703703703
0.2768942937324602,0.7303703703703703
0.27595884003741816,0.7318518518518519
0.2768942937324602,0.7333333333333333
0.2778297474275023,0.7333333333333333
0.27876520112254444,0.7318518518518519
0.2778297474275023,0.7303703703703703
0.23854069223573432,0.7303703703703703
0.23760523854069224,0.7318518518518519
0.23760523854069224,0.7333333333333333
0.23854069223573432,0.7333333333333333
0.23947614593077643,0.7318518518518519
0.1992516370439663,0.7303703703703703
0.19831618334892423,0.7318518518518519
0.1992516370439663,0.7333333333333333
0.20018709073900842,0.7333333333333333
0.2011225444340505,0.7318518518518519
0.2039289055191768,0.7318518518518519
0.2011225444340505,0.7318518518518519
0.20018709073900842,0.7303703703703703
0.1796071094480823,0.7303703703703703
0.17867165575304023,0.7318518518518519
0.1796071094480823,0.7333333333333333
0.18054256314312442,0.7333333333333333
0.1814780168381665,0.7318518518518519
0.18054256314312442,0.7303703703703703
0.16089803554724041,0.7303703703703703
0.1599625818521983,0.7318518518518519
0.15902712815715622,0.7318518518518519
0.1599625818521983,0.7333333333333333
0.16089803554724041,0.7333333333333333
0.1618334892422825,0.7318518518518519
0.1412535079513564,0.7303703703703703
0.1403180542563143,0.7318518518518519
0.13657623947614594,0.7318518518518519
0.1403180542563143,0.7318518518518519
0.1412535079513564,0.7333333333333333
0.1421889616463985,0.7333333333333333
0.1431244153414406,0.7318518518518519
0.14593077642656688,0.7318518518518519
0.1421889616463985,0.7318518518518519
0.1216089803554724,0.7303703703703703
0.12067352666043031,0.7318518518518519
0.1216089803554724,0.7333333333333333
0.1225444340505145,0.7333333333333333
0.1234798877455566,0.7318518518518519
0.12722170252572498,0.7318518518518519
0.1234798877455566,0.7318518518518519
0.1225444340505145,0.7303703703703703
0.1019644527595884,0.7303703703703703
0.10102899906454631,0.7318518518518519
0.09728718428437792,0.7318518518518519
0.10102899906454631,0.7318518518518519
0.1019644527595884,0.7333333333333333
0.1028999064546305,0.7333333333333333
0.1038353601496726,0.7318518518518519
0.1028999064546305,0.7303703703703703
0.09448082319925163,0.7303703703703703
0.09354536950420954,0.7318518518518519
0.09448082319925163,0.7333333333333333
0.09541627689429373,0.7318518518518519
0.0832553788587465,0.7303703703703703
0.0823199251637044,0.7318518518518519
0.0813844714686623,0.7318518518518519
0.0823199251637044,0.7333333333333333
0.0832553788587465,0.7333333333333333
0.08419083255378859,0.7318518518518519
0.0626753975678204,0.7303703703703703
0.0626753975678204,0.7333333333333333
0.06361085126286249,0.7333333333333333
0.06454630495790459,0.7318518518518519
0.06828811973807297,0.7318518518518519
0.06454630495790459,0.7318518518518519
0.06361085126286249,0.7303703703703703
0.04396632366697849,0.7303703703703703
0.04303086997193639,0.7318518518518519
0.04396632366697849,0.7333333333333333
0.04490177736202058,0.7333333333333333
0.04490177736202058,0.7303703703703703
0.3938260056127222,0.7288888888888889
0.3938260056127222,0.7303703703703703
0.3928905519176801,0.7318518518518519
0.3854069223573433,0.7318518518518519
0.39195509822263797,0.7318518518518519
0.3938260056127222,0.7348148148148148
0.3938260056127222,0.7333333333333333
0.39476145930776424,0.7318518518518519
0.3938260056127222,0.7303703703703703
0.25818521983161835,0.7288888888888889
0.25631431244153413,0.7318518518518519
0.25818521983161835,0.7348148148148148
0.25818521983161835,0.7362962962962963
0.25818521983161835,0.7333333333333333
0.2591206735266604,0.7318518518518519
0.25818521983161835,0.7303703703703703
0.025257249766136577,0.7288888888888889
0.025257249766136577,0.7303703703703703
0.02432179607109448,0.7318518518518519
0.02432179607109448,0.7333333333333333
0.025257249766136577,0.7348148148148148
0.025257249766136577,0.7333333333333333
0.026192703461178673,0.7318518518518519
0.03274087932647334,0.7318518518518519
0.026192703461178673,0.7318518518518519
0.025257249766136577,0.7303703703703703
0.9766136576239476,0.7214814814814815
0.9766136576239476,0.7229629629629629
0.9569691300280636,0.7214814814814815
0.9176800748362957,0.7214814814814815
0.9186155285313377,0.7214814814814815
0.8980355472404116,0.7214814814814815
0.8980355472404116,0.7229629629629629
0.8989710009354537,0.7229629629629629
0.8989710009354537,0.7214814814814815
0.8793264733395697,0.7214814814814815
0.41347053320860616,0.7214814814814815
0.37418147801683815,0.7214814814814815
0.3545369504209542,0.7214814814814815
0.3545369504209542,0.7229629629629629
0.35547240411599623,0.7229629629629629
0.35547240411599623,0.7214814814814815
0.33582787652011226,0.7214814814814815
0.3161833489242282,0.7214814814814815
0.3161833489242282,0.7229629629629629
0.29653882132834425,0.7214814814814815
0.29653882132834425,0.7229629629629629
0.29747427502338636,0.7214814814814815
0.2768942937324602,0.7214814814814815
0.2778297474275023,0.7214814814814815
0.23854069223573432,0.7214814814814815
0.1992516370439663,0.7214814814814815
0.20018709073900842,0.7214814814814815
0.1796071094480823,0.7214814814814815
0.18054256314312442,0.7214814814814815
0.16089803554724041,0.7214814814814815
0.16089803554724041,0.7229629629629629
0.1412535079513564,0.7214814814814815
0.1412535079513564,0.7229629629629629
0.1216089803554724,0.7214814814814815
0.1216089803554724,0.7229629629629629
0.1225444340505145,0.7214814814814815
0.1019644527595884,0.7214814814814815
0.1028999064546305,0.7214814814814815
0.0832553788587465,0.7214814814814815
0.0832553788587465,0.7229629629629629
0.06361085126286249,0.7214814814814815
0.04396632366697849,0.7214814814814815
0.04396632366697849,0.7229629629629629
0.04490177736202058,0.7214814814814815
0.9953227315247896,0.72
0.9953227315247896,0.7229629629629629
0.9962581852198317,0.7214814814814815
0.3938260056127222,0.72
0.3938260056127222,0.7229629629629629
0.25818521983161835,0.72
0.25724976613657624,0.7214814814814815
0.25818521983161835,0.7229629629629629
0.25818521983161835,0.725925925925926
0.21889616463985032,0.72
0.21889616463985032,0.7303703703703703
0.21796071094480823,0.7318518518518519
0.20673526660430308,0.7318518518518519
0.21796071094480823,0.7318518518518519
0.21889616463985032,0.7333333333333333
0.21889616463985032,0.7437037037037038
0.21889616463985032,0.7348148148148148
0.2207670720299345,0.7318518518518519
0.2235734331150608,0.7318518518518519
0.21983161833489243,0.7318518518518519
0.21889616463985032,0.7303703703703703
0.025257249766136577,0.72
0.025257249766136577,0.7229629629629629
0.9766136576239476,0.7125925925925926
0.9953227315247896,0.7111111111111111
0.9953227315247896,0.7140740740740741
0.8980355472404116,0.7111111111111111
0.8980355472404116,0.7125925925925926
0.8989710009354537,0.7125925925925926
0.8989710009354537,0.7111111111111111
0.3938260056127222,0.7111111111111111
0.3938260056127222,0.7140740740740741
0.3545369504209542,0.7111111111111111
0.3545369504209542,0.7125925925925926
0.35547240411599623,0.7125925925925926
0.33582787652011226,0.7111111111111111
0.33582787652011226,0.7125925925925926
0.3161833489242282,0.7111111111111111
0.3161833489242282,0.7125925925925926
0.16089803554724041,0.7111111111111111
0.16089803554724041,0.7125925925925926
0.1216089803554724,0.7111111111111111
0.1216089803554724,0.7125925925925926
0.0832553788587465,0.7111111111111111
0.0832553788587465,0.7125925925925926
0.04396632366697849,0.7111111111111111
0.04396632366697849,0.7125925925925926
0.025257249766136577,0.7096296296296296
0.025257249766136577,0.7140740740740741
0.21889616463985032,0.7081481481481482
0.21889616463985032,0.717037037037037
0.25818521983161835,0.7066666666666667
0.25818521983161835,0.717037037037037
0.9569691300280636,0.7022222222222222
0.9176800748362957,0.7022222222222222
0.9186155285313377,0.7022222222222222
0.8793264733395697,0.7022222222222222
0.41253507951356405,0.7022222222222222
0.41347053320860616,0.7022222222222222
0.37418147801683815,0.7022222222222222
0.37511693171188026,0.7022222222222222
0.3545369504209542,0.7022222222222222
0.35547240411599623,0.7022222222222222
0.33489242282507015,0.7022222222222222
0.33582787652011226,0.7022222222222222
0.2768942937324602,0.7022222222222222
0.2778297474275023,0.7022222222222222
0.23854069223573432,0.7022222222222222
0.1992516370439663,0.7022222222222222
0.20018709073900842,0.7022222222222222
0.1796071094480823,0.7022222222222222
0.18054256314312442,0.7022222222222222
0.1412535079513564,0.7022222222222222
0.1019644527595884,0.7022222222222222
0.1028999064546305,0.7022222222222222
0.06361085126286249,0.7022222222222222
0.9953227315247896,0.7007407407407408
0.9953227315247896,0.7037037037037037
0.9962581852198317,0.7022222222222222
0.8980355472404116,0.7007407407407408
0.8980355472404116,0.7022222222222222
0.8989710009354537,0.7037037037037037
0.8989710009354537,0.7007407407407408
0.3938260056127222,0.7007407407407408
0.3928905519176801,0.7022222222222222
0.3938260056127222,0.7037037037037037
0.3161833489242282,0.7007407407407408
0.3161833489242282,0.7037037037037037
0.293732460243218,0.7007407407407408
0.29279700654817586,0.7022222222222222
0.29279700654817586,0.7096296296296296
0.29186155285313375,0.7111111111111111
0.29186155285313375,0.7125925925925926
0.29279700654817586,0.7140740740740741
0.29279700654817586,0.7155555555555555
0.293732460243218,0.7155555555555555
0.29466791393826003,0.7140740740740741
0.29653882132834425,0.717037037037037
0.29653882132834425,0.7155555555555555
0.29747427502338636,0.7140740740740741
0.29747427502338636,0.7096296296296296
0.29653882132834425,0.7081481481481482
0.29653882132834425,0.7051851851851851
0.29747427502338636,0.7037037037037037
0.29747427502338636,0.7022222222222222
0.29653882132834425,0.7007407407407408
0.16089803554724041,0.7007407407407408
0.16089803554724041,0.7022222222222222
0.1216089803554724,0.7007407407407408
0.1216089803554724,0.7022222222222222
0.1225444340505145,0.7022222222222222
0.0832553788587465,0.7007407407407408
0.0823199251637044,0.7022222222222222
0.0832553788587465,0.7022222222222222
0.04396632366697849,0.7007407407407408
0.04396632366697849,0.7022222222222222
0.04490177736202058,0.7022222222222222
0.025257249766136577,0.7007407407407408
0.025257249766136577,0.7037037037037037
0.21889616463985032,0.6992592592592592
0.21889616463985032,0.7051851851851851
0.9569691300280636,0.6918518518518518
0.9176800748362957,0.6918518518518518
0.3545369504209542,0.6918518518518518
0.35547240411599623,0.6918518518518518
0.33582787652011226,0.6918518518518518
0.1796071094480823,0.6918518518518518
0.16089803554724041,0.6918518518518518
0.16089803554724041,0.6933333333333334
0.1412535079513564,0.6918518518518518
0.1216089803554724,0.6918518518518518
0.1216089803554724,0.6933333333333334
0.1225444340505145,0.6918518518518518
0.1019644527595884,0.6918518518518518
0.0832553788587465,0.6918518518518518
0.06361085126286249,0.6918518518518518
0.04396632366697849,0.6918518518518518
0.04396632366697849,0.6933333333333334
0.04490177736202058,0.6918518518518518
0.9953227315247896,0.6903703703703704
0.9953227315247896,0.6933333333333334
0.9962581852198317,0.6918518518518518
0.8989710009354537,0.6903703703703704
0.8980355472404116,0.6918518518518518
0.8989710009354537,0.6933333333333334
0.3938260056127222,0.6903703703703704
0.3938260056127222,0.6933333333333334
0.3161833489242282,0.6903703703703704
0.3161833489242282,0.6918518518518518
0.025257249766136577,0.6903703703703704
0.025257249766136577,0.6933333333333334
0.9373246024321796,0.6888888888888889
0.9373246024321796,0.7303703703703703
0.9363891487371375,0.7318518518518519
0.9373246024321796,0.7333333333333333
0.9373246024321796,0.7762962962962963
0.9373246024321796,0.7333333333333333
0.9382600561272217,0.7318518518518519
0.9494855004677268,0.7318518518518519
0.9382600561272217,0.7318518518518519
0.9373246024321796,0.7303703703703703
0.9953227315247896,0.6711111111111111
0.9953227315247896,0.674074074074074
0.04396632366697849,0.6711111111111111
0.04396632366697849,0.6725925925925926
0.025257249766136577,0.6696296296296296
0.025257249766136577,0.674074074074074
0.04396632366697849,0.6622222222222223
0.04490177736202058,0.6622222222222223
0.9953227315247896,0.6607407407407407
0.9953227315247896,0.6637037037037037
0.9962581852198317,0.6622222222222223
0.025257249766136577,0.6607407407407407
0.025257249766136577,0.6637037037037037
0.9766136576239476,0.6414814814814814
0.9766136576239476,0.642962962962963
0.9569691300280636,0.6414814814814814
0.8980355472404116,0.6414814814814814
0.8980355472404116,0.642962962962963
0.8989710009354537,0.642962962962963
0.8989710009354537,0.6414814814814814
0.8793264733395697,0.6414814814814814
0.9373246024321796,0.6385185185185185
0.9373246024321796,0.6444444444444445
0.9990645463049579,0.6311111111111111
0.9990645463049579,0.6325925925925926
0.9915809167446211,0.6311111111111111
0.990645463049579,0.6325925925925926
0.9925163704396632,0.6325925925925926
0.9925163704396632,0.6311111111111111
0.9878391019644528,0.6311111111111111
0.9869036482694107,0.6325925925925926
0.9887745556594949,0.6325925925925926
0.9887745556594949,0.6311111111111111
0.9840972871842844,0.6311111111111111
0.9831618334892422,0.6325925925925926
0.9850327408793265,0.6325925925925926
0.980355472404116,0.6311111111111111
0.9794200187090739,0.6325925925925926
0.9812909260991581,0.6325925925925926
0.9756782039289055,0.6311111111111111
0.9756782039289055,0.6325925925925926
0.9766136576239476,0.6340740740740741
0.9775491113189897,0.6325925925925926
0.9766136576239476,0.6311111111111111
0.9719363891487371,0.6311111111111111
0.971000935453695,0.6325925925925926
0.9728718428437793,0.6325925925925926
0.9728718428437793,0.6311111111111111
0.9681945743685687,0.6311111111111111
0.9672591206735267,0.6325925925925926
0.9691300280636108,0.6325925925925926
0.9691300280636108,0.6311111111111111
0.9644527595884004,0.6311111111111111
0.9635173058933583,0.6325925925925926
0.9653882132834425,0.6325925925925926
0.960710944808232,0.6311111111111111
0.9597754911131899,0.6325925925925926
0.961646398503274,0.6325925925925926
0.9560336763330215,0.6311111111111111
0.9560336763330215,0.6325925925925926
0.9579045837231057,0.6325925925925926
0.9579045837231057,0.6311111111111111
0.9532273152478953,0.6311111111111111
0.9522918615528532,0.6325925925925926
0.9541627689429373,0.6325925925925926
0.9485500467726847,0.6311111111111111
0.9485500467726847,0.6325925925925926
0.9494855004677268,0.6325925925925926
0.9494855004677268,0.6311111111111111
0.9448082319925164,0.6311111111111111
0.9448082319925164,0.6325925925925926
0.9457436856875585,0.6325925925925926
0.941066417212348,0.6311111111111111
0.9401309635173059,0.6325925925925926
0.9420018709073901,0.6325925925925926
0.9420018709073901,0.6311111111111111
0.9326473339569691,0.6311111111111111
0.9326473339569691,0.6325925925925926
0.9345182413470533,0.6325925925925926
0.9335827876520112,0.6311111111111111
0.9289055191768008,0.6311111111111111
0.9289055191768008,0.6325925925925926
0.9298409728718429,0.6325925925925926
0.9298409728718429,0.6311111111111111
0.9251637043966323,0.6311111111111111
0.9251637043966323,0.6325925925925926
0.9270346117867165,0.6325925925925926
0.9260991580916744,0.6311111111111111
0.921421889616464,0.6311111111111111
0.921421889616464,0.6325925925925926
0.9223573433115061,0.6325925925925926
0.9223573433115061,0.6311111111111111
0.9176800748362957,0.6311111111111111
0.9167446211412535,0.6325925925925926
0.9195509822263798,0.6325925925925926
0.9195509822263798,0.6311111111111111
0.9139382600561272,0.6311111111111111
0.9130028063610851,0.6325925925925926
0.9148737137511693,0.6325925925925926
0.9101964452759589,0.6311111111111111
0.9092609915809168,0.6325925925925926
0.9101964452759589,0.6325925925925926
0.9055191768007483,0.6311111111111111
0.9055191768007483,0.6325925925925926
0.9073900841908326,0.6325925925925926
0.9064546304957904,0.6311111111111111
0.90177736202058,0.6311111111111111
0.90177736202058,0.6325925925925926
0.9027128157156221,0.6325925925925926
0.9027128157156221,0.6311111111111111
0.8942937324602432,0.6311111111111111
0.8942937324602432,0.6325925925925926
0.8952291861552854,0.6325925925925926
0.8952291861552854,0.6311111111111111
0.8905519176800748,0.6311111111111111
0.8905519176800748,0.6325925925925926
0.8914873713751169,0.6325925925925926
0.8914873713751169,0.6311111111111111
0.8868101028999065,0.6311111111111111
0.8868101028999065,0.6325925925925926
0.8877455565949486,0.6325925925925926
0.8877455565949486,0.6311111111111111
0.882132834424696,0.6311111111111111
0.882132834424696,0.6325925925925926
0.8840037418147801,0.6325925925925926
0.883068288119738,0.6311111111111111
0.8783910196445276,0.6311111111111111
0.8783910196445276,0.6325925925925926
0.8802619270346118,0.6325925925925926
0.8802619270346118,0.6311111111111111
0.8746492048643593,0.6311111111111111
0.8746492048643593,0.6325925925925926
0.8755846585594013,0.6325925925925926
0.8755846585594013,0.6311111111111111
0.8709073900841908,0.6311111111111111
0.8699719363891487,0.6325925925925926
0.8718428437792329,0.6325925925925926
0.8671655753040225,0.6311111111111111
0.8671655753040225,0.6325925925925926
0.8681010289990645,0.6325925925925926
0.8681010289990645,0.6311111111111111
0.8634237605238541,0.6311111111111111
0.862488306828812,0.6325925925925926
0.8643592142188962,0.6325925925925926
0.8643592142188962,0.6311111111111111
0.040224508886810104,0.6311111111111111
0.03928905519176801,0.6325925925925926
0.0411599625818522,0.6325925925925926
0.03648269410664172,0.6311111111111111
0.03554724041159962,0.6325925925925926
0.037418147801683815,0.6325925925925926
0.031805425631431246,0.6311111111111111
0.031805425631431246,0.6325925925925926
0.03274087932647334,0.6325925925925926
0.03274087932647334,0.6311111111111111
0.9953227315247896,0.6296296296296297
0.9943872778297475,0.6311111111111111
0.9943872778297475,0.6325925925925926
0.9953227315247896,0.6340740740740741
0.9962581852198317,0.6325925925925926
0.9971936389148737,0.6325925925925926
0.8980355472404116,0.6296296296296297
0.8980355472404116,0.6311111111111111
0.8971000935453695,0.6325925925925926
0.8980355472404116,0.6340740740740741
0.8989710009354537,0.6340740740740741
0.8999064546304958,0.6325925925925926
0.8999064546304958,0.6311111111111111
0.8989710009354537,0.6296296296296297
0.9373246024321796,0.6266666666666667
0.9373246024321796,0.6296296296296297
0.9363891487371375,0.6311111111111111
0.9363891487371375,0.6325925925925926
0.9373246024321796,0.6340740740740741
0.9373246024321796,0.6355555555555555
0.9373246024321796,0.6340740740740741
0.9382600561272217,0.6325925925925926
0.9382600561272217,0.6311111111111111
0.9373246024321796,0.6296296296296297
0.9766136576239476,0.6222222222222222
0.9569691300280636,0.6222222222222222
0.9176800748362957,0.6222222222222222
0.9186155285313377,0.6222222222222222
0.8793264733395697,0.6222222222222222
0.9953227315247896,0.6207407407407407
0.9953227315247896,0.6237037037037036
0.9962581852198317,0.6222222222222222
0.8980355472404116,0.6207407407407407
0.8980355472404116,0.6222222222222222
0.8989710009354537,0.6237037037037036
0.8989710009354537,0.6207407407407407
0.9766136576239476,0.6118518518518519
0.9569691300280636,0.6118518518518519
0.9176800748362957,0.6118518518518519
0.8793264733395697,0.6118518518518519
0.9953227315247896,0.6103703703703703
0.9953227315247896,0.6133333333333333
0.9962581852198317,0.6118518518518519
0.8989710009354537,0.6103703703703703
0.8980355472404116,0.6118518518518519
0.8980355472404116,0.6133333333333333
0.8989710009354537,0.6133333333333333
0.9953227315247896,0.6014814814814815
0.9953227315247896,0.6029629629629629
0.9962581852198317,0.6014814814814815
0.9766136576239476,0.6014814814814815
0.9766136576239476,0.6029629629629629
0.9569691300280636,0.6014814814814815
0.9569691300280636,0.6029629629629629
0.9176800748362957,0.6014814814814815
0.8980355472404116,0.6014814814814815
0.8980355472404116,0.6029629629629629
0.8989710009354537,0.6029629629629629
0.8989710009354537,0.6014814814814815
0.8793264733395697,0.6014814814814815
0.9953227315247896,0.5911111111111111
0.9953227315247896,0.5940740740740741
0.9766136576239476,0.5911111111111111
0.9766136576239476,0.5925925925925926
0.8980355472404116,0.5911111111111111
0.8980355472404116,0.5925925925925926
0.8989710009354537,0.5925925925925926
0.8989710009354537,0.5911111111111111
0.9373246024321796,0.5881481481481482
0.9373246024321796,0.6237037037037036
0.9766136576239476,0.5718518518518518
0.9766136576239476,0.5733333333333334
0.9569691300280636,0.5718518518518518
0.8793264733395697,0.5718518518518518
0.3545369504209542,0.5718518518518518
0.35547240411599623,0.5718518518518518
0.33582787652011226,0.5718518518518518
0.3161833489242282,0.5718518518518518
0.29653882132834425,0.5718518518518518
0.29653882132834425,0.5733333333333334
0.1796071094480823,0.5718518518518518
0.16089803554724041,0.5718518518518518
0.1412535079513564,0.5718518518518518
0.1216089803554724,0.5718518518518518
0.1216089803554724,0.5733333333333334
0.1225444340505145,0.5718518518518518
0.1019644527595884,0.5718518518518518
0.0832553788587465,0.5718518518518518
0.06361085126286249,0.5718518518518518
0.9953227315247896,0.5703703703703704
0.9953227315247896,0.5733333333333334
0.9373246024321796,0.5703703703703704
0.9373246024321796,0.5762962962962963
0.8989710009354537,0.5703703703703704
0.8980355472404116,0.5718518518518518
0.8980355472404116,0.5733333333333334
0.8989710009354537,0.5733333333333334
0.3938260056127222,0.5703703703703704
0.3938260056127222,0.5733333333333334
0.25818521983161835,0.5688888888888889
0.25818521983161835,0.5762962962962963
0.9953227315247896,0.5614814814814815
0.9953227315247896,0.562962962962963
0.9962581852198317,0.5614814814814815
0.9766136576239476,0.5614814814814815
0.9766136576239476,0.562962962962963
0.9569691300280636,0.5614814814814815
0.9569691300280636,0.562962962962963
0.9176800748362957,0.5614814814814815
0.8980355472404116,0.5614814814814815
0.8980355472404116,0.562962962962963
0.8989710009354537,0.562962962962963
0.8989710009354537,0.5614814814814815
0.3938260056127222,0.5614814814814815
0.3938260056127222,0.562962962962963
0.3545369504209542,0.5614814814814815
0.3545369504209542,0.562962962962963
0.35547240411599623,0.562962962962963
0.35547240411599623,0.5614814814814815
0.33582787652011226,0.5614814814814815
0.33582787652011226,0.562962962962963
0.3161833489242282,0.5614814814814815
0.3161833489242282,0.562962962962963
0.29653882132834425,0.5614814814814815
0.29653882132834425,0.562962962962963
0.2768942937324602,0.5614814814814815
0.1992516370439663,0.5614814814814815
0.1992516370439663,0.562962962962963
0.1796071094480823,0.5614814814814815
0.18054256314312442,0.5614814814814815
0.16089803554724041,0.5614814814814815
0.16089803554724041,0.562962962962963
0.1412535079513564,0.5614814814814815
0.1412535079513564,0.562962962962963
0.1216089803554724,0.5614814814814815
0.1216089803554724,0.562962962962963
0.1225444340505145,0.5614814814814815
0.1019644527595884,0.5614814814814815
0.0832553788587465,0.5614814814814815
0.0832553788587465,0.562962962962963
0.06361085126286249,0.5614814814814815
0.06361085126286249,0.562962962962963
0.25818521983161835,0.56
0.25724976613657624,0.5614814814814815
0.25818521983161835,0.562962962962963
0.25818521983161835,0.5659259259259259
0.3545369504209542,0.5525925925925926
0.35547240411599623,0.5525925925925926
0.33582787652011226,0.5525925925925926
0.9953227315247896,0.5511111111111111
0.9953227315247896,0.554074074074074
0.9766136576239476,0.5511111111111111
0.9766136576239476,0.5525925925925926
0.8980355472404116,0.5511111111111111
0.8980355472404116,0.5525925925925926
0.8989710009354537,0.554074074074074
0.8989710009354537,0.5511111111111111
0.3938260056127222,0.5511111111111111
0.3938260056127222,0.554074074074074
0.3161833489242282,0.5511111111111111
0.3161833489242282,0.5525925925925926
0.29653882132834425,0.5511111111111111
0.29653882132834425,0.5525925925925926
0.16089803554724041,0.5511111111111111
0.16089803554724041,0.5525925925925926
0.1216089803554724,0.5511111111111111
0.1216089803554724,0.5525925925925926
0.0832553788587465,0.5511111111111111
0.0832553788587465,0.5525925925925926
0.9373246024321796,0.5496296296296296
0.9373246024321796,0.5674074074074074
0.25818521983161835,0.5496296296296296
0.25818521983161835,0.557037037037037
0.9766136576239476,0.5422222222222223
0.9569691300280636,0.5422222222222223
0.8793264733395697,0.5422222222222223
0.37418147801683815,0.5422222222222223
0.3545369504209542,0.5422222222222223
0.35547240411599623,0.5422222222222223
0.33582787652011226,0.5422222222222223
0.3161833489242282,0.5422222222222223
0.3161833489242282,0.5437037037037037
0.29653882132834425,0.5422222222222223
0.29653882132834425,0.5437037037037037
0.2768942937324602,0.5422222222222223
0.1992516370439663,0.5422222222222223
0.1796071094480823,0.5422222222222223
0.18054256314312442,0.5422222222222223
0.16089803554724041,0.5422222222222223
0.16089803554724041,0.5437037037037037
0.1412535079513564,0.5422222222222223
0.1216089803554724,0.5422222222222223
0.1216089803554724,0.5437037037037037
0.1225444340505145,0.5422222222222223
0.1019644527595884,0.5422222222222223
0.0832553788587465,0.5422222222222223
0.06361085126286249,0.5422222222222223
0.04396632366697849,0.5422222222222223
0.04490177736202058,0.5422222222222223
0.9953227315247896,0.5407407407407407
0.9953227315247896,0.5437037037037037
0.8989710009354537,0.5407407407407407
0.8980355472404116,0.5422222222222223
0.8980355472404116,0.5437037037037037
0.8989710009354537,0.5437037037037037
0.3938260056127222,0.5407407407407407
0.3938260056127222,0.5437037037037037
0.025257249766136577,0.5407407407407407
0.025257249766136577,0.5437037037037037
0.25818521983161835,0.5392592592592592
0.25818521983161835,0.5437037037037037
0.9990645463049579,0.5318518518518518
0.9990645463049579,0.5333333333333333
0.990645463049579,0.5318518518518518
0.9925163704396632,0.5318518518518518
0.9869036482694107,0.5318518518518518
0.9887745556594949,0.5318518518518518
0.9831618334892422,0.5318518518518518
0.9850327408793265,0.5318518518518518
0.9794200187090739,0.5318518518518518
0.9812909260991581,0.5318518518518518
0.971000935453695,0.5318518518518518
0.9719363891487371,0.5333333333333333
0.9728718428437793,0.5318518518518518
0.9672591206735267,0.5318518518518518
0.9691300280636108,0.5318518518518518
0.9635173058933583,0.5318518518518518
0.9644527595884004,0.5333333333333333
0.9653882132834425,0.5318518518518518
0.9597754911131899,0.5318518518518518
0.961646398503274,0.5318518518518518
0.9485500467726847,0.5318518518518518
0.9494855004677268,0.5318518518518518
0.9448082319925164,0.5318518518518518
0.9457436856875585,0.5318518518518518
0.941066417212348,0.5318518518518518
0.9420018709073901,0.5318518518518518
0.9326473339569691,0.5318518518518518
0.9335827876520112,0.5318518518518518
0.9289055191768008,0.5318518518518518
0.930776426566885,0.5318518518518518
0.9251637043966323,0.5318518518518518
0.9270346117867165,0.5318518518518518
0.921421889616464,0.5318518518518518
0.9223573433115061,0.5333333333333333
0.9223573433115061,0.5318518518518518
0.9130028063610851,0.5318518518518518
0.9148737137511693,0.5318518518518518
0.9092609915809168,0.5318518518518518
0.9101964452759589,0.5318518518518518
0.9055191768007483,0.5318518518518518
0.9073900841908326,0.5318518518518518
0.90177736202058,0.5318518518518518
0.9027128157156221,0.5318518518518518
0.8942937324602432,0.5318518518518518
0.8952291861552854,0.5318518518518518
0.8896164639850327,0.5318518518518518
0.892422825070159,0.5318518518518518
0.8868101028999065,0.5318518518518518
0.8868101028999065,0.5333333333333333
0.8877455565949486,0.5318518518518518
0.882132834424696,0.5318518518518518
0.8840037418147801,0.5318518518518518
0.8746492048643593,0.5318518518518518
0.8755846585594013,0.5318518518518518
0.8699719363891487,0.5318518518518518
0.8718428437792329,0.5318518518518518
0.8662301216089804,0.5318518518518518
0.8681010289990645,0.5318518518518518
0.862488306828812,0.5318518518518518
0.8643592142188962,0.5318518518518518
0.4275023386342376,0.5318518518518518
0.4293732460243218,0.5318518518518518
0.4237605238540692,0.5318518518518518
0.4256314312441534,0.5318518518518518
0.4200187090739008,0.5318518518518518
0.42188961646398504,0.5318518518518518
0.41627689429373244,0.5318518518518518
0.41814780168381666,0.5318518518518518
0.411599625818522,0.5318518518518518
0.41253507951356405,0.5333333333333333
0.41347053320860616,0.5333333333333333
0.41440598690364827,0.5318518518518518
0.4078578110383536,0.5318518518518518
0.4097287184284378,0.5318518518518518
0.40411599625818523,0.5318518518518518
0.4059869036482694,0.5318518518518518
0.40037418147801684,0.5318518518518518
0.402245088868101,0.5318518518518518
0.39663236669784846,0.5318518518518518
0.39756782039289057,0.5333333333333333
0.39756782039289057,0.5318518518518518
0.3891487371375117,0.5318518518518518
0.3910196445275959,0.5318518518518518
0.3854069223573433,0.5318518518518518
0.3872778297474275,0.5318518518518518
0.3816651075771749,0.5318518518518518
0.38260056127221703,0.5318518518518518
0.37792329279700654,0.5318518518518518
0.37885874649204865,0.5318518518518518
0.37324602432179604,0.5318518518518518
0.37418147801683815,0.5333333333333333
0.37511693171188026,0.5333333333333333
0.37511693171188026,0.5318518518518518
0.3695042095416277,0.5318518518518518
0.37043966323666977,0.5333333333333333
0.3713751169317119,0.5318518518518518
0.36576239476145933,0.5318518518518518
0.3676333021515435,0.5318518518518518
0.36202057998129095,0.5318518518518518
0.3638914873713751,0.5318518518518518
0.35827876520112256,0.5318518518518518
0.3601496725912067,0.5318518518518518
0.3470533208606174,0.5318518518518518
0.3479887745556595,0.5318518518518518
0.3423760523854069,0.5318518518518518
0.343311506080449,0.5318518518518518
0.3302151543498597,0.5318518518518518
0.33208606173994387,0.5318518518518518
0.3274087932647334,0.5318518518518518
0.3274087932647334,0.5333333333333333
0.3283442469597755,0.5318518518518518
0.32273152478952294,0.5318518518518518
0.3246024321796071,0.5318518518518518
0.3115060804490178,0.5318518518518518
0.31337698783910195,0.5318518518518518
0.3077642656688494,0.5318518518518518
0.3086997193638915,0.5318518518518518
0.304022450888681,0.5318518518518518
0.3058933582787652,0.5318518518518518
0.29186155285313375,0.5318518518518518
0.293732460243218,0.5318518518518518
0.28811973807296537,0.5318518518518518
0.2899906454630496,0.5318518518518518
0.284377923292797,0.5318518518518518
0.2853133769878391,0.5333333333333333
0.2862488306828812,0.5318518518518518
0.2806361085126286,0.5318518518518518
0.2815715622076707,0.5318518518518518
0.2722170252572498,0.5318518518518518
0.27408793264733394,0.5318518518518518
0.2684752104770814,0.5318518518518518
0.2694106641721235,0.5318518518518518
0.264733395696913,0.5318518518518518
0.2666043030869972,0.5318518518518518
0.2609915809167446,0.5318518518518518
0.2628624883068288,0.5318518518518518
0.25350795135640786,0.5318518518518518
0.25350795135640786,0.5333333333333333
0.25444340505144997,0.5318518518518518
0.24976613657623947,0.5318518518518518
0.2507015902712816,0.5318518518518518
0.2460243217960711,0.5318518518518518
0.2469597754911132,0.5318518518518518
0.24134705332086062,0.5318518518518518
0.2432179607109448,0.5318518518518518
0.23012160898035547,0.5318518518518518
0.23105706267539758,0.5318518518518518
0.225444340505145,0.5318518518518518
0.22825070159027128,0.5318518518518518
0.2226379794200187,0.5318518518518518
0.2235734331150608,0.5318518518518518
0.21421889616463985,0.5318518518518518
0.21608980355472404,0.5318518518518518
0.21047708138447146,0.5318518518518518
0.21234798877455566,0.5318518518518518
0.20673526660430308,0.5318518518518518
0.20860617399438727,0.5318518518518518
0.19457436856875585,0.5318518518518518
0.19644527595884004,0.5318518518518518
0.19083255378858746,0.5318518518518518
0.19176800748362957,0.5333333333333333
0.19270346117867165,0.5318518518518518
0.18709073900841908,0.5318518518518518
0.1880261927034612,0.5333333333333333
0.18896164639850327,0.5318518518518518
0.1833489242282507,0.5318518518518518
0.1842843779232928,0.5333333333333333
0.18521983161833488,0.5318518518518518
0.17492984097287184,0.5318518518518518
0.17680074836295603,0.5318518518518518
0.17118802619270346,0.5318518518518518
0.17305893358278765,0.5318518518518518
0.16744621141253507,0.5318518518518518
0.16931711880261927,0.5318518518518518
0.1637043966323667,0.5318518518518518
0.16557530402245088,0.5318518518518518
0.15622076707202995,0.5318518518518518
0.15622076707202995,0.5333333333333333
0.15715622076707203,0.5333333333333333
0.15715622076707203,0.5318518518518518
0.15154349859681945,0.5318518518518518
0.15434985968194576,0.5318518518518518
0.14780168381665107,0.5318518518518518
0.14967259120673526,0.5318518518518518
0.14405986903648269,0.5318518518518518
0.14593077642656688,0.5318518518518518
0.13657623947614594,0.5318518518518518
0.1384471468662301,0.5318518518518518
0.13283442469597756,0.5318518518518518
0.13470533208606175,0.5318518518518518
0.12909260991580918,0.5318518518518518
0.12909260991580918,0.5333333333333333
0.13002806361085126,0.5318518518518518
0.11693171188026193,0.5318518518518518
0.11880261927034612,0.5318518518518518
0.11318989710009354,0.5318518518518518
0.11506080449017773,0.5318518518518518
0.10944808231992516,0.5318518518518518
0.11131898971000935,0.5318518518518518
0.10570626753975679,0.5318518518518518
0.10757717492984098,0.5318518518518518
0.09728718428437792,0.5318518518518518
0.09915809167446211,0.5318518518518518
0.09354536950420954,0.5318518518518518
0.09448082319925163,0.5333333333333333
0.09541627689429373,0.5318518518518518
0.08980355472404115,0.5318518518518518
0.09073900841908325,0.5333333333333333
0.09167446211412535,0.5318518518518518
0.08606173994387278,0.5318518518518518
0.08793264733395698,0.5318518518518518
0.07857811038353602,0.5318518518518518
0.07951356407857811,0.5318518518518518
0.07483629560336763,0.5318518518518518
0.07670720299345182,0.5318518518518518
0.07015902712815715,0.5318518518518518
0.07202993451824134,0.5318518518518518
0.06641721234798878,0.5318518518518518
0.06735266604303088,0.5333333333333333
0.06735266604303088,0.5318518518518518
0.05893358278765201,0.5318518518518518
0.0608044901777362,0.5318518518518518
0.05519176800748363,0.5318518518518518
0.05706267539756782,0.5318518518518518
0.04677268475210477,0.5318518518518518
0.052385406922357346,0.5318518518518518
0.03928905519176801,0.5318518518518518
0.0411599625818522,0.5318518518518518
0.03554724041159962,0.5318518518518518
0.037418147801683815,0.5318518518518518
0.03086997193638915,0.5318518518518518
0.03367633302151544,0.5318518518518518
0.9953227315247896,0.5303703703703704
0.9943872778297475,0.5318518518518518
0.9953227315247896,0.5333333333333333
0.9953227315247896,0.5348148148148149
0.9971936389148737,0.5318518518518518
0.9962581852198317,0.5303703703703704
0.9766136576239476,0.5303703703703704
0.9756782039289055,0.5318518518518518
0.9747427502338635,0.5318518518518518
0.9756782039289055,0.5333333333333333
0.9766136576239476,0.5333333333333333
0.9775491113189897,0.5318518518518518
0.9569691300280636,0.5303703703703704
0.9560336763330215,0.5318518518518518
0.9522918615528532,0.5318518518518518
0.9550982226379794,0.5318518518518518
0.9560336763330215,0.5333333333333333
0.9569691300280636,0.5333333333333333
0.9579045837231057,0.5318518518518518
0.9176800748362957,0.5303703703703704
0.9167446211412535,0.5318518518518518
0.9176800748362957,0.5333333333333333
0.9186155285313377,0.5333333333333333
0.9195509822263798,0.5318518518518518
0.9186155285313377,0.5318518518518518
0.8980355472404116,0.5303703703703704
0.8971000935453695,0.5318518518518518
0.8980355472404116,0.5333333333333333
0.8980355472404116,0.5348148148148149
0.8989710009354537,0.5348148148148149
0.8989710009354537,0.5333333333333333
0.8999064546304958,0.5318518518518518
0.8989710009354537,0.5303703703703704
0.8793264733395697,0.5303703703703704
0.8783910196445276,0.5318518518518518
0.8774555659494855,0.5318518518518518
0.8783910196445276,0.5333333333333333
0.8793264733395697,0.5333333333333333
0.8802619270346118,0.5318518518518518
0.3938260056127222,0.5303703703703704
0.3928905519176801,0.5318518518518518
0.3928905519176801,0.5333333333333333
0.3938260056127222,0.5348148148148149
0.39476145930776424,0.5333333333333333
0.39476145930776424,0.5318518518518518
0.3545369504209542,0.5303703703703704
0.35360149672591207,0.5318518518518518
0.3507951356407858,0.5318518518518518
0.35360149672591207,0.5318518518518518
0.3545369504209542,0.5333333333333333
0.35547240411599623,0.5333333333333333
0.35640785781103834,0.5318518518518518
0.35547240411599623,0.5303703703703704
0.33582787652011226,0.5303703703703704
0.33489242282507015,0.5318518518518518
0.33395696913002804,0.5318518518518518
0.33489242282507015,0.5333333333333333
0.33582787652011226,0.5333333333333333
0.33676333021515437,0.5318518518518518
0.34050514499532275,0.5318518518518518
0.33676333021515437,0.5318518518518518
0.3161833489242282,0.5303703703703704
0.31524789522918617,0.5318518518518518
0.31524789522918617,0.5333333333333333
0.31711880261927033,0.5333333333333333
0.31805425631431244,0.5318518518518518
0.31898971000935455,0.5318518518518518
0.3199251637043966,0.5333333333333333
0.3208606173994387,0.5318518518518518
0.31711880261927033,0.5318518518518518
0.29653882132834425,0.5303703703703704
0.29560336763330214,0.5318518518518518
0.29653882132834425,0.5333333333333333
0.29747427502338636,0.5333333333333333
0.2984097287184284,0.5318518518518518
0.3021515434985968,0.5318518518518518
0.29747427502338636,0.5318518518518518
0.2768942937324602,0.5303703703703704
0.27595884003741816,0.5318518518518518
0.2768942937324602,0.5333333333333333
0.2778297474275023,0.5333333333333333
0.27876520112254444,0.5318518518518518
0.2778297474275023,0.5318518518518518
0.23854069223573432,0.5303703703703704
0.23760523854069224,0.5318518518518518
0.23292797006548177,0.5318518518518518
0.23666978484565013,0.5318518518518518
0.23760523854069224,0.5333333333333333
0.23854069223573432,0.5333333333333333
0.23947614593077643,0.5318518518518518
0.1992516370439663,0.5303703703703704
0.19831618334892423,0.5318518518518518
0.1992516370439663,0.5333333333333333
0.20018709073900842,0.5333333333333333
0.2011225444340505,0.5318518518518518
0.2039289055191768,0.5318518518518518
0.2011225444340505,0.5318518518518518
0.20018709073900842,0.5303703703703704
0.1796071094480823,0.5303703703703704
0.17867165575304023,0.5318518518518518
0.1796071094480823,0.5333333333333333
0.18054256314312442,0.5333333333333333
0.1814780168381665,0.5318518518518518
0.18054256314312442,0.5303703703703704
0.16089803554724041,0.5303703703703704
0.1599625818521983,0.5318518518518518
0.15902712815715622,0.5318518518518518
0.1599625818521983,0.5333333333333333
0.16089803554724041,0.5333333333333333
0.1618334892422825,0.5318518518518518
0.1412535079513564,0.5303703703703704
0.1403180542563143,0.5318518518518518
0.1412535079513564,0.5333333333333333
0.1421889616463985,0.5333333333333333
0.1421889616463985,0.5318518518518518
0.1216089803554724,0.5303703703703704
0.12067352666043031,0.5318518518518518
0.1216089803554724,0.5333333333333333
0.1216089803554724,0.5348148148148149
0.1234798877455566,0.5318518518518518
0.1244153414405987,0.5318518518518518
0.1253507951356408,0.5333333333333333
0.12628624883068287,0.5318518518518518
0.12722170252572498,0.5318518518518518
0.1234798877455566,0.5318518518518518
0.1225444340505145,0.5303703703703704
0.1019644527595884,0.5303703703703704
0.10102899906454631,0.5318518518518518
0.1019644527595884,0.5333333333333333
0.1028999064546305,0.5333333333333333
0.1038353601496726,0.5318518518518518
0.1028999064546305,0.5318518518518518
0.0832553788587465,0.5303703703703704
0.0823199251637044,0.5318518518518518
0.0823199251637044,0.5333333333333333
0.0832553788587465,0.5333333333333333
0.08419083255378859,0.5318518518518518
0.06361085126286249,0.5303703703703704
0.0626753975678204,0.5318518518518518
0.0626753975678204,0.5333333333333333
0.06454630495790459,0.5333333333333333
0.06454630495790459,0.5318518518518518
0.04396632366697849,0.5303703703703704
0.04303086997193639,0.5318518518518518
0.04396632366697849,0.5333333333333333
0.04396632366697849,0.5348148148148149
0.04490177736202058,0.5333333333333333
0.04490177736202058,0.5303703703703704
0.25818521983161835,0.5288888888888889
0.25631431244153413,0.5318518518518518
0.25818521983161835,0.5348148148148149
0.25818521983161835,0.5362962962962963
0.25818521983161835,0.5333333333333333
0.2591206735266604,0.5318518518518518
0.25818521983161835,0.5303703703703704
0.025257249766136577,0.5288888888888889
0.025257249766136577,0.5348148148148149
0.025257249766136577,0.5333333333333333
0.026192703461178673,0.5318518518518518
0.028999064546304958,0.5318518518518518
0.026192703461178673,0.5318518518518518
0.025257249766136577,0.5303703703703704
0.1992516370439663,0.522962962962963
0.9953227315247896,0.5214814814814814
0.9953227315247896,0.522962962962963
0.9766136576239476,0.5214814814814814
0.9766136576239476,0.522962962962963
0.9569691300280636,0.5214814814814814
0.9569691300280636,0.522962962962963
0.8980355472404116,0.5214814814814814
0.8980355472404116,0.522962962962963
0.8989710009354537,0.522962962962963
0.8989710009354537,0.5214814814814814
0.3938260056127222,0.5214814814814814
0.3938260056127222,0.522962962962963
0.3545369504209542,0.5214814814814814
0.3545369504209542,0.522962962962963
0.35547240411599623,0.522962962962963
0.35547240411599623,0.5214814814814814
0.33582787652011226,0.5214814814814814
0.33582787652011226,0.522962962962963
0.3161833489242282,0.5214814814814814
0.3161833489242282,0.522962962962963
0.29653882132834425,0.5214814814814814
0.29653882132834425,0.522962962962963
0.1796071094480823,0.5214814814814814
0.1796071094480823,0.522962962962963
0.16089803554724041,0.5214814814814814
0.16089803554724041,0.522962962962963
0.1412535079513564,0.5214814814814814
0.1412535079513564,0.522962962962963
0.1216089803554724,0.5214814814814814
0.1216089803554724,0.522962962962963
0.1019644527595884,0.5214814814814814
0.1019644527595884,0.522962962962963
0.0832553788587465,0.5214814814814814
0.0832553788587465,0.522962962962963
0.06361085126286249,0.5214814814814814
0.06361085126286249,0.522962962962963
0.04396632366697849,0.5214814814814814
0.04396632366697849,0.522962962962963
0.04490177736202058,0.522962962962963
0.04490177736202058,0.5214814814814814
0.025257249766136577,0.52
0.025257249766136577,0.5244444444444445
0.25818521983161835,0.5185185185185185
0.25818521983161835,0.5244444444444445
0.3545369504209542,0.5125925925925926
0.35547240411599623,0.5125925925925926
0.33582787652011226,0.5125925925925926
0.9953227315247896,0.5111111111111111
0.9953227315247896,0.5140740740740741
0.9766136576239476,0.5111111111111111
0.9766136576239476,0.5125925925925926
0.8980355472404116,0.5111111111111111
0.8980355472404116,0.5125925925925926
0.8989710009354537,0.5125925925925926
0.8989710009354537,0.5111111111111111
0.3938260056127222,0.5111111111111111
0.3938260056127222,0.5140740740740741
0.3161833489242282,0.5111111111111111
0.3161833489242282,0.5125925925925926
0.29653882132834425,0.5111111111111111
0.29653882132834425,0.5125925925925926
0.16089803554724041,0.5111111111111111
0.16089803554724041,0.5125925925925926
0.1216089803554724,0.5111111111111111
0.1216089803554724,0.5125925925925926
0.0832553788587465,0.5111111111111111
0.0832553788587465,0.5125925925925926
0.04396632366697849,0.5111111111111111
0.04396632366697849,0.5125925925925926
0.25818521983161835,0.5096296296296297
0.25818521983161835,0.5155555555555555
0.025257249766136577,0.5096296296296297
0.025257249766136577,0.5140740740740741
0.9373246024321796,0.5081481481481481
0.9373246024321796,0.5303703703703704
0.9363891487371375,0.5318518518518518
0.9363891487371375,0.5333333333333333
0.9373246024321796,0.5348148148148149
0.9373246024321796,0.5466666666666666
0.9373246024321796,0.5348148148148149
0.9382600561272217,0.5333333333333333
0.9382600561272217,0.5318518518518518
0.9373246024321796,0.5303703703703704
0.21889616463985032,0.5081481481481481
0.21889616463985032,0.5303703703703704
0.21796071094480823,0.5318518518518518
0.21889616463985032,0.5333333333333333
0.21889616463985032,0.5555555555555556
0.21889616463985032,0.5348148148148149
0.21983161833489243,0.5333333333333333
0.21983161833489243,0.5318518518518518
0.21889616463985032,0.5303703703703704
0.9766136576239476,0.5022222222222222
0.9766136576239476,0.5037037037037037
0.9569691300280636,0.5022222222222222
0.9176800748362957,0.5022222222222222
0.8980355472404116,0.5022222222222222
0.8980355472404116,0.5037037037037037
0.8989710009354537,0.5037037037037037
0.8989710009354537,0.5022222222222222
0.8793264733395697,0.5022222222222222
0.41347053320860616,0.5022222222222222
0.3545369504209542,0.5022222222222222
0.35547240411599623,0.5037037037037037
0.35547240411599623,0.5022222222222222
0.33582787652011226,0.5022222222222222
0.33582787652011226,0.5037037037037037
0.29653882132834425,0.5022222222222222
0.29653882132834425,0.5037037037037037
0.2768942937324602,0.5022222222222222
0.23854069223573432,0.5022222222222222
0.1992516370439663,0.5022222222222222
0.1796071094480823,0.5022222222222222
0.18054256314312442,0.5022222222222222
0.16089803554724041,0.5022222222222222
0.16089803554724041,0.5037037037037037
0.1412535079513564,0.5022222222222222
0.1216089803554724,0.5022222222222222
0.1216089803554724,0.5037037037037037
0.1225444340505145,0.5022222222222222
0.1019644527595884,0.5022222222222222
0.0832553788587465,0.5022222222222222
0.0832553788587465,0.5037037037037037
0.06361085126286249,0.5022222222222222
0.04396632366697849,0.5022222222222222
0.04396632366697849,0.5037037037037037
0.04490177736202058,0.5022222222222222
0.9953227315247896,0.5007407407407407
0.9953227315247896,0.5037037037037037
0.9962581852198317,0.5022222222222222
0.3938260056127222,0.5007407407407407
0.3938260056127222,0.5037037037037037
0.3161833489242282,0.5007407407407407
0.3161833489242282,0.5037037037037037
0.025257249766136577,0.5007407407407407
0.025257249766136577,0.5037037037037037
0.21889616463985032,0.49777777777777776
0.21889616463985032,0.5051851851851852
0.9953227315247896,0.4918518518518519
0.9953227315247896,0.49333333333333335
0.9766136576239476,0.4918518518518519
0.9766136576239476,0.49333333333333335
0.9569691300280636,0.4918518518518519
0.8980355472404116,0.4918518518518519
0.8980355472404116,0.49333333333333335
0.8989710009354537,0.49333333333333335
0.8989710009354537,0.4918518518518519
0.3545369504209542,0.4918518518518519
0.35547240411599623,0.49333333333333335
0.35547240411599623,0.4918518518518519
0.33582787652011226,0.4918518518518519
0.33582787652011226,0.49333333333333335
0.3161833489242282,0.4918518518518519
0.3161833489242282,0.49333333333333335
0.29653882132834425,0.4918518518518519
0.29653882132834425,0.49333333333333335
0.2768942937324602,0.4918518518518519
0.1992516370439663,0.4918518518518519
0.1796071094480823,0.4918518518518519
0.18054256314312442,0.4918518518518519
0.16089803554724041,0.4918518518518519
0.16089803554724041,0.49333333333333335
0.1412535079513564,0.4918518518518519
0.1216089803554724,0.4918518518518519
0.1216089803554724,0.49333333333333335
0.1225444340505145,0.4918518518518519
0.1019644527595884,0.4918518518518519
0.0832553788587465,0.4918518518518519
0.0832553788587465,0.49333333333333335
0.06361085126286249,0.4918518518518519
0.04396632366697849,0.4918518518518519
0.04396632366697849,0.49333333333333335
0.04490177736202058,0.4918518518518519
0.3938260056127222,0.49037037037037035
0.3938260056127222,0.49333333333333335
0.25818521983161835,0.49037037037037035
0.25818521983161835,0.5007407407407407
0.25724976613657624,0.5022222222222222
0.25818521983161835,0.5037037037037037
0.25818521983161835,0.5051851851851852
0.025257249766136577,0.49037037037037035
0.025257249766136577,0.49333333333333335
0.21889616463985032,0.4888888888888889
0.21889616463985032,0.4948148148148148
0.3545369504209542,0.4725925925925926
0.35547240411599623,0.4725925925925926
0.1796071094480823,0.4725925925925926
0.1019644527595884,0.4725925925925926
0.04396632366697849,0.4725925925925926
0.9953227315247896,0.4711111111111111
0.9953227315247896,0.4740740740740741
0.8980355472404116,0.4711111111111111
0.8980355472404116,0.4725925925925926
0.8989710009354537,0.4740740740740741
0.8989710009354537,0.4711111111111111
0.3938260056127222,0.4711111111111111
0.3938260056127222,0.4740740740740741
0.33582787652011226,0.4711111111111111
0.33582787652011226,0.4725925925925926
0.3161833489242282,0.4711111111111111
0.3161833489242282,0.4725925925925926
0.16089803554724041,0.4711111111111111
0.16089803554724041,0.4725925925925926
0.1216089803554724,0.4711111111111111
0.1216089803554724,0.4725925925925926
0.0832553788587465,0.4711111111111111
0.0832553788587465,0.4725925925925926
0.9373246024321796,0.4696296296296296
0.9373246024321796,0.47555555555555556
0.025257249766136577,0.4696296296296296
0.025257249766136577,0.47555555555555556
0.9569691300280636,0.4622222222222222
0.9176800748362957,0.4622222222222222
0.8793264733395697,0.4622222222222222
0.41347053320860616,0.4622222222222222
0.3545369504209542,0.4622222222222222
0.35547240411599623,0.4622222222222222
0.33582787652011226,0.4622222222222222
0.2768942937324602,0.4622222222222222
0.1992516370439663,0.4622222222222222
0.1796071094480823,0.4622222222222222
0.18054256314312442,0.4622222222222222
